1111-cupegps1,,111111,,blank,,1,,111111,,
Wavelength (nm),Abs,Wavelength (nm),Abs,Wavelength (nm),Abs,Wavelength (nm),Abs,Wavelength (nm),Abs,
900,0.1695348173,800,-0.0009781121043,800,0.0004696441174,800,0.0008902242407,800,-0.0009781121043,
899,0.1691962034,799,-0.00095843093,799,0.0005519287661,799,0.0009518857696,799,-0.00095843093,
898,0.1687993407,798,-0.0008546379977,798,0.0002612938988,798,0.0007615335635,798,-0.0008546379977,
897,0.1651817709,797,-0.0007699423586,797,0.0004807354417,797,0.000988829881,797,-0.0007699423586,
896,0.1674949676,796,-0.0009631317807,796,0.0001809806272,796,0.000629225804,796,-0.0009631317807,
895,0.1664616615,795,-0.0008740138728,795,0.0003848359338,795,0.0008948413888,795,-0.0008740138728,
894,0.1652304381,794,-0.0008068404859,794,0.000277819403,794,0.001128643868,794,-0.0008068404859,
893,0.1635657549,793,-0.001049752347,793,0.0002694011491,793,0.0008066824521,793,-0.001049752347,
892,0.1646653563,792,-0.001064419863,792,0.0003767265298,792,0.0006136719603,792,-0.001064419863,
891,0.1637753397,791,-0.0008594949613,791,0.0003165194939,791,0.0008186122868,791,-0.0008594949613,
890,0.1629960686,790,-0.0009093532572,790,0.0002047026937,790,0.0008136068936,790,-0.0009093532572,
889,0.1584604383,789,-0.00100042671,789,0.0003781774139,789,0.0008694994031,789,-0.00100042671,
888,0.1627263874,788,-0.0008389816503,788,0.000351855153,788,0.0007996025379,788,-0.0008389816503,
887,0.1608387381,787,-0.0009124014177,787,0.0005027893349,787,0.0008737013559,787,-0.0009124014177,
886,0.1607056707,786,-0.0008387750131,786,0.0005589528591,786,0.000882260967,786,-0.0008387750131,
885,0.1592951417,785,-0.0006486319471,785,0.0005134668318,785,0.001055954723,785,-0.0006486319471,
884,0.1582742184,784,-0.000939833757,784,0.0004852705169,784,0.0009120914037,784,-0.000939833757,
883,0.1576603949,783,-0.001011996763,783,0.0003026865306,783,0.000810053898,783,-0.001011996763,
882,0.1556007117,782,-0.001024186378,782,0.0003818305267,782,0.0007989801234,782,-0.001024186378,
881,0.1558421999,781,-0.0009830710478,781,0.0004016511666,781,0.0007119555376,781,-0.0009830710478,
880,0.155086875,780,-0.0006224219105,780,0.0004275618412,780,0.001119560329,780,-0.0006224219105,
879,0.153339535,779,-0.0009830193594,779,0.000444560108,779,0.001015502145,779,-0.0009830193594,
878,0.1527129561,778,-0.0008357780171,778,0.0004309821816,778,0.001040671021,778,-0.0008357780171,
877,0.1532628536,777,-0.0007560918457,777,0.0005032040062,777,0.001071524341,777,-0.0007560918457,
876,0.1524625272,776,-0.0009866869077,776,0.0003017539857,776,0.0007172190235,776,-0.0009866869077,
875,0.1513724178,775,-0.0009146746015,775,0.0003478395811,775,0.0007748106145,775,-0.0009146746015,
874,0.152040109,774,-0.0007819837192,774,0.0003223481472,774,0.0007760035223,774,-0.0007819837192,
873,0.1502415538,773,-0.0006509064697,773,0.0006223042728,773,0.001159555395,773,-0.0006509064697,
872,0.150229916,772,-0.0009824511362,772,0.0002973762457,772,0.000850487384,772,-0.0009824511362,
871,0.1510341614,771,-0.0007525774417,771,0.0003580987686,771,0.0008645452908,771,-0.0007525774417,
870,0.1497776806,770,-0.0009017586708,770,0.0006175603485,770,0.001083357725,770,-0.0009017586708,
869,0.1493231356,769,-0.0007501483778,769,0.0004505459219,769,0.001020821161,769,-0.0007501483778,
868,0.1476553828,768,-0.0006693609757,768,0.0003323994752,768,0.0008780329954,768,-0.0006693609757,
867,0.1482432634,767,-0.0007740251021,767,0.0004298420681,767,0.0009764283313,767,-0.0007740251021,
866,0.1484526098,766,-0.0009020686266,766,0.0003779701365,766,0.0007747068885,766,-0.0009020686266,
865,0.1478826702,765,-0.0008976771496,765,0.0002866263385,765,0.001004189602,765,-0.0008976771496,
864,0.1482558697,764,-0.0008964371518,764,0.0005053550121,764,0.001136715407,764,-0.0008964371518,
863,0.1480998695,763,-0.0008869306766,763,0.0002968581684,763,0.000881871907,763,-0.0008869306766,
862,0.147378698,762,-0.0007166051073,762,0.000249793753,762,0.0009703314863,762,-0.0007166051073,
861,0.1481523365,761,-0.001137749874,761,0.0001492064621,761,0.000721212069,761,-0.001137749874,
860,0.1482126713,760,-0.001388940262,760,-6.465833576E-5,760,0.0005593675887,760,-0.001388940262,
859,0.1483226568,759,-0.0009604456136,759,0.0003029455838,759,0.0008524585282,759,-0.0009604456136,
858,0.1486327797,758,-0.0007714410895,758,0.0004260849091,758,0.001054579392,758,-0.0007714410895,
857,0.1484862268,757,-0.0008650235832,757,0.0004585012503,757,0.0008271968109,757,-0.0008650235832,
856,0.1490344554,756,-0.0007386747166,756,0.0004258776025,756,0.00103781675,756,-0.0007386747166,
855,0.1502248347,755,-0.0006572648417,755,0.0004879656772,755,0.001048844773,755,-0.0006572648417,
854,0.1503943205,754,-0.0006267645513,754,0.0006097576697,754,0.001285482198,754,-0.0006267645513,
853,0.1505820453,753,-0.0005927463644,753,0.0005838879151,753,0.001133912476,753,-0.0005927463644,
852,0.1506697834,752,-0.0007595028146,752,0.0005733642029,752,0.001043291762,752,-0.0007595028146,
851,0.1513844132,751,-0.0008458023076,751,0.0005047848681,751,0.001031667111,751,-0.0008458023076,
850,0.1523274928,750,-0.000693397189,750,0.0003499898594,750,0.001022948883,750,-0.000693397189,
849,0.1527397037,749,-0.0006371038617,749,0.0004624660069,749,0.00109142845,749,-0.0006371038617,
848,0.1536021531,748,-0.0006748403539,748,0.0005311682471,748,0.00104562717,748,-0.0006748403539,
847,0.1542093307,747,-0.0008015695494,747,0.000513985171,747,0.001098980196,747,-0.0008015695494,
846,0.1551615745,746,-0.0008552063955,746,0.0006378584076,746,0.001027852879,746,-0.0008552063955,
845,0.1564857811,745,-0.0006428937777,745,0.0005571903312,745,0.001226265333,745,-0.0006428937777,
844,0.1570117623,744,-0.0007756271516,744,0.0004858924658,744,0.0009698126232,744,-0.0007756271516,
843,0.1579716206,743,-0.0006858505076,743,0.000599596242,743,0.001303319004,743,-0.0006858505076,
842,0.1591990739,742,-0.0006281086826,742,0.0005349004059,742,0.001164538786,742,-0.0006281086826,
841,0.1597910225,741,-0.0007794514531,741,0.0003671923187,741,0.0009771548212,741,-0.0007794514531,
840,0.1611112952,740,-0.0005059828982,740,0.0006500428426,740,0.001261519268,740,-0.0005059828982,
839,0.1621265113,739,-0.0005077928072,739,0.0005869725137,739,0.001252848306,739,-0.0005077928072,
838,0.1627498567,738,-0.0006451683585,738,0.0004850632104,738,0.001041293726,738,-0.0006451683585,
837,0.1637457758,737,-0.0007066811668,737,0.0004140362726,737,0.001057304093,737,-0.0007066811668,
836,0.1648087204,736,-0.0007021842757,736,0.000608150498,736,0.001172014046,736,-0.0007021842757,
835,0.1653071642,735,-0.0005282183411,735,0.0007077292539,735,0.001182059175,735,-0.0005282183411,
834,0.1662626714,734,-0.0006892620586,734,0.0004512714804,734,0.001248253277,734,-0.0006892620586,
833,0.1667927951,733,-0.0005829747533,733,0.0006364066503,733,0.001203863183,733,-0.0005829747533,
832,0.1672968715,732,-0.000641601393,732,0.0005299760378,732,0.001144994749,732,-0.000641601393,
831,0.1676428467,731,-0.0006333817146,731,0.0006570166443,731,0.001102068461,731,-0.0006333817146,
830,0.1681431383,730,-0.0007437397144,730,0.0004850632104,730,0.001151665114,730,-0.0007437397144,
829,0.1685338318,729,-0.0005749607808,729,0.0006535945577,729,0.001189560629,729,-0.0005749607808,
828,0.1682824641,728,-0.0005887653679,728,0.0006226153346,728,0.001305188402,728,-0.0005887653679,
827,0.1687341332,727,-0.0006371555501,727,0.000531323778,727,0.001125763054,727,-0.0006371555501,
826,0.1687865555,726,-0.0007161399117,726,0.00041424355,726,0.001148810145,726,-0.0007161399117,
825,0.1689293683,725,-0.0005343199591,725,0.0007587589207,725,0.001237999066,725,-0.0005343199591,
824,0.1691000909,724,-0.0004254086816,724,0.0008160447469,724,0.001241893042,724,-0.0004254086816,
823,0.1694544703,723,-0.0004246845783,723,0.000679779565,723,0.001377477776,723,-0.0004246845783,
822,0.1696353108,722,-0.0006255754852,722,0.0006147606764,722,0.001344239805,722,-0.0006255754852,
821,0.1699501872,721,-0.0007067328552,721,0.0006054805126,721,0.001197607373,721,-0.0007067328552,
820,0.1700140238,720,-0.0004070472496,720,0.0007965164259,720,0.001339825569,720,-0.0004070472496,
819,0.1703115851,719,-0.0003905988706,719,0.0008329285774,719,0.001305915299,719,-0.0003905988706,
818,0.1704112589,718,-0.0004999843077,718,0.0007290427457,718,0.001262713573,718,-0.0004999843077,
817,0.1707376838,717,-0.0005945042358,717,0.0006217339542,717,0.001416483778,717,-0.0005945042358,
816,0.1710282564,716,-0.0005285285879,716,0.0005288615939,716,0.001235428965,716,-0.0005285285879,
815,0.171236828,715,-0.0005786833935,715,0.0008109356859,715,0.001333827502,715,-0.0005786833935,
814,0.1714836806,714,-0.0005874211201,714,0.0006710942253,714,0.001388410572,714,-0.0005874211201,
813,0.1716081649,713,-0.0003392842482,713,0.0008136588149,713,0.001481259125,713,-0.0003392842482,
812,0.1717699915,712,-0.00037544308,712,0.0007068995037,712,0.001459804829,712,-0.00037544308,
811,0.1718868464,711,-0.0003458541178,711,0.0008638708969,711,0.001441675937,711,-0.0003458541178,
810,0.1721526384,710,-0.0003162114008,710,0.0007990838494,710,0.001457882812,710,-0.0003162114008,
809,0.1723030508,709,-0.0005611557281,709,0.0007581884274,709,0.001202539308,709,-0.0005611557281,
808,0.1725294292,708,-0.000413667789,708,0.0008658421575,708,0.001382619608,708,-0.000413667789,
807,0.1726419032,707,-0.0006825940218,707,0.0004357758735,707,0.001228601672,707,-0.0006825940218,
806,0.1727615744,706,-0.0006461505545,706,0.0006187009858,706,0.001060677459,706,-0.0006461505545,
805,0.1729218215,705,-0.0004448037071,705,0.0008097945829,705,0.001580830431,705,-0.0004448037071,
804,0.1733945012,704,-0.0003209709248,704,0.0008543260046,704,0.001425703405,704,-0.0003209709248,
803,0.1734869331,703,-0.0002377751807,703,0.0009050616063,703,0.001529080677,703,-0.0002377751807,
802,0.1736004949,702,-0.0004497169866,702,0.0007583440165,702,0.001309056999,702,-0.0004497169866,
801,0.1736774892,701,-0.0004268568591,701,0.0008092758944,701,0.001399733126,701,-0.0004268568591,
800,0.1740614325,700,-0.0003968058736,700,0.0009210669086,700,0.001517806668,700,-0.0003968058736,
799,0.1740601659,699,-0.0006373106153,699,0.0006753461203,699,0.001299398486,699,-0.0006373106153,
798,0.17424196,698,-0.000605774927,698,0.000657431432,698,0.001288987231,698,-0.000605774927,
797,0.174552083,697,-0.0004622843699,697,0.0007720877766,697,0.001346083358,697,-0.0004622843699,
796,0.1745865941,696,-0.0005297178868,696,0.0007093108725,696,0.001365844277,696,-0.0005297178868,
795,0.1749270856,695,-0.0004354424891,695,0.0007916149916,695,0.001482765656,695,-0.0004354424891,
794,0.1751759201,694,-0.0004591296019,694,0.0008864630945,694,0.001458869781,694,-0.0004591296019,
793,0.1755590737,693,-0.0004377698642,693,0.0009011965594,693,0.001605408615,693,-0.0004377698642,
792,0.1758238673,692,-0.0003868229105,692,0.0008787073893,692,0.001444221241,692,-0.0003868229105,
791,0.1759068817,691,-0.0003002769372,691,0.0008792261942,691,0.001453077886,691,-0.0003002769372,
790,0.1761711985,690,-0.0003491131356,690,0.000842135807,690,0.001365065225,690,-0.0003491131356,
789,0.176667735,689,-0.0004313565732,689,0.0009128177189,689,0.001549733104,689,-0.0004313565732,
788,0.1768521816,688,-0.0003498890728,688,0.000831683632,688,0.001432066434,688,-0.0003498890728,
787,0.1771948487,687,-0.0003513892589,687,0.0008122583386,687,0.001554591116,687,-0.0003513892589,
786,0.1774384528,686,-0.0004315117258,686,0.000913388445,686,0.001445156173,686,-0.0004315117258,
785,0.1778331846,685,-0.0003071578103,685,0.00089364819,685,0.001504402957,685,-0.0003071578103,
784,0.1778663248,684,-0.0005787868286,684,0.0007451711572,684,0.001399681205,684,-0.0005787868286,
783,0.1782530546,683,-0.0003565622319,683,0.001050116261,683,0.001671095612,683,-0.0003565622319,
782,0.1786526442,682,-0.0003703737748,682,0.0009232978337,682,0.00158366235,682,-0.0003703737748,
781,0.1788761169,681,-0.0002538671251,681,0.0009967950173,681,0.001662286581,681,-0.0002538671251,
780,0.1791675836,680,-0.0002356019395,680,0.00090475037,680,0.001464609872,680,-0.0002356019395,
779,0.1795177609,679,-0.000377356977,679,0.0008109356859,679,0.001510507311,679,-0.000377356977,
778,0.1797222495,678,-0.0004217364476,678,0.0008636633866,678,0.001562670572,678,-0.0004217364476,
777,0.1799682975,677,-0.0004090644361,677,0.0009006778128,677,0.001496636309,677,-0.0004090644361,
776,0.1804111004,676,-0.000351027149,676,0.0008322023787,676,0.001512299641,676,-0.000351027149,
775,0.1807366908,675,-0.0003275410272,675,0.001063454081,675,0.001623154501,675,-0.0003275410272,
774,0.1810161769,674,-0.0003852194059,674,0.0009759613313,674,0.001480843523,674,-0.0003852194059,
773,0.1814605594,673,-0.0003796846722,673,0.0008976688259,673,0.001594756148,673,-0.0003796846722,
772,0.1815805286,672,-0.0003232989111,672,0.0008969425107,672,0.001466012443,672,-0.0003232989111,
771,0.1818484664,671,-0.0001818884921,671,0.0009004183812,671,0.001647163415,671,-0.0001818884921,
770,0.182155177,670,-0.0001747986535,670,0.0009406008176,670,0.001678969362,670,-0.0001747986535,
769,0.1824543625,669,-0.0004244776792,669,0.000895230507,669,0.00159059919,669,-0.0004244776792,
768,0.1827602386,668,-0.0003644250392,668,0.0008460003301,668,0.001532171969,668,-0.0003644250392,
767,0.1831665188,667,-0.000332869502,667,0.0008769435808,667,0.001526534907,667,-0.000332869502,
766,0.1834493876,666,-0.0002408797736,666,0.0010114545,666,0.001668185228,666,-0.0002408797736,
765,0.1836579144,665,-0.0002842384274,665,0.001020250376,665,0.001578076626,665,-0.0002842384274,
764,0.1840301156,664,-0.0002354984463,664,0.0007961533265,664,0.001585584949,664,-0.0002354984463,
763,0.1843429953,663,-0.0001830269903,663,0.001107907738,663,0.001661818824,663,-0.0001830269903,
762,0.1847224683,662,-0.0002301687928,662,0.001001283643,662,0.001578803989,662,-0.0002301687928,
761,0.1849630773,661,-0.0001432293211,661,0.001063713571,661,0.001614970039,661,-0.0001432293211,
760,0.1855292022,660,-0.0002295996092,660,0.0009581380291,660,0.001702773501,660,-0.0002295996092,
759,0.1859063059,659,-0.0001885642268,659,0.001054527471,659,0.001660935348,659,-0.0001885642268,
758,0.1860645711,658,-0.0002277368039,658,0.001008470659,658,0.001609020052,658,-0.0002277368039,
757,0.1863819808,657,-0.0001965335687,657,0.001096281339,657,0.00171995163,657,-0.0001965335687,
756,0.1865635961,656,-0.0001089144935,656,0.001005668542,656,0.00181955169,656,-0.0001089144935,
755,0.1869592816,655,-0.0001876844763,655,0.001092622173,655,0.0017764027,655,-0.0001876844763,
754,0.1873958856,654,-0.0002524183656,654,0.001075909939,654,0.001696510473,654,-0.0002524183656,
753,0.1876223087,653,-0.0001433328434,653,0.0009990003891,653,0.001665560761,653,-0.0001433328434,
752,0.1881335527,652,-9.4318224E-5,652,0.001055357861,652,0.001763822744,652,-9.4318224E-5,
751,0.188419953,651,-0.0001172993652,651,0.001134483377,651,0.001766058034,651,-0.0001172993652,
750,0.1888094246,650,-7.20087919E-5,650,0.001133756712,650,0.001889482955,650,-7.20087919E-5,
749,0.1892397255,649,-4.524631731E-5,649,0.001148187206,649,0.001860833145,649,-4.524631731E-5,
748,0.1894589067,648,4.685385647E-6,648,0.001147564268,648,0.001935373293,648,4.685385647E-6,
747,0.1898121834,647,-0.000229030411,647,0.001050687046,647,0.001737156534,647,-0.000229030411,
746,0.1902493387,646,-5.855011477E-5,646,0.001261077938,646,0.001923152711,646,-5.855011477E-5,
745,0.190709874,645,-0.0002440360986,645,0.001127969124,645,0.001766603789,645,-0.0002440360986,
744,0.1910747439,644,-0.0001054466338,644,0.001073081396,644,0.001737390412,644,-0.0001054466338,
743,0.1915370375,643,-9.157489694E-5,643,0.001118574175,643,0.001828675973,643,-9.157489694E-5,
742,0.191940695,642,-3.251155795E-5,642,0.001082527335,642,0.00173868984,642,-3.251155795E-5,
741,0.1921899021,641,-0.0001037903276,641,0.001158984378,641,0.001721199136,641,-0.0001037903276,
740,0.1925446391,640,-8.324129885E-5,640,0.001082475414,640,0.001928820973,640,-8.324129885E-5,
739,0.1928697228,639,-0.0001041008873,639,0.001102328068,639,0.001872636029,639,-0.0001041008873,
738,0.193273142,638,-0.0001229927002,638,0.001173623372,638,0.001785292057,638,-0.0001229927002,
737,0.1934045553,637,-7.242290303E-5,637,0.000999778742,637,0.001867176499,637,-7.242290303E-5,
736,0.1936701238,636,-3.380575799E-5,636,0.001142347464,636,0.001880253432,636,-3.380575799E-5,
735,0.1938328147,635,-0.0003181255597,635,0.0009492915124,635,0.001616892754,635,-0.0003181255597,
734,0.1939179748,634,-0.0002184743789,634,0.001157712541,634,0.001834264956,634,-0.0002184743789,
733,0.1940093338,633,-0.0001504749525,633,0.001196283498,633,0.001952352701,633,-0.0001504749525,
732,0.1940701157,632,-4.576397987E-5,632,0.001214116579,632,0.001962207723,632,-4.576397987E-5,
731,0.1939985305,631,5.016990326E-5,631,0.001320896787,631,0.00199869182,631,5.016990326E-5,
730,0.1939573735,630,5.811788651E-5,630,0.001205264824,630,0.001977289794,630,5.811788651E-5,
729,0.193918094,629,-4.886995885E-5,629,0.001201397157,629,0.001954614883,629,-4.886995885E-5,
728,0.1942325532,628,-8.919388347E-5,628,0.001079854323,628,0.001983244903,628,-8.919388347E-5,
727,0.1943430901,627,-0.0001170923351,627,0.001073756022,627,0.001945046009,627,-0.0001170923351,
726,0.1945178658,626,0.0001503976237,626,0.001246436033,626,0.002117734635,626,0.0001503976237,
725,0.1947756261,625,-4.540161535E-5,625,0.001230185153,625,0.002028468996,625,-4.540161535E-5,
724,0.1950685233,624,-0.0001439538901,624,0.001222553197,624,0.002042617183,624,-0.0001439538901,
723,0.1951942444,623,-0.000121595258,623,0.001367194578,623,0.002092867391,623,-0.000121595258,
722,0.1954468936,622,4.595002611E-5,622,0.001118158922,622,0.002368775895,622,4.595002611E-5,
721,0.1958903819,621,2.125289939E-5,621,0.001107129152,621,0.002116746269,621,2.125289939E-5,
720,0.1962403953,620,9.247452545E-5,620,0.001344499411,620,0.002311024582,620,9.247452545E-5,
719,0.1967006475,619,7.968432328E-5,619,0.001236129901,619,0.002317843027,619,7.968432328E-5,
718,0.1969397068,618,-5.901960776E-6,618,0.001154390397,618,0.002286900999,618,-5.901960776E-6,
717,0.1973787695,617,-3.401283175E-5,617,0.001157816383,617,0.002270116704,617,-3.401283175E-5,
716,0.1976976991,616,0.0001686021424,616,0.001310251304,616,0.002590300748,616,0.0001686021424,
715,0.1981749535,615,2.272847451E-5,615,0.001272552996,615,0.002591941273,615,2.272847451E-5,
714,0.198306635,614,0.0001694826205,614,0.001185148023,614,0.002739722608,614,0.0001694826205,
713,0.1990092993,613,0.0001635265653,613,0.001328089158,613,0.002788751153,613,0.0001635265653,
712,0.1994110346,612,0.0004005370429,612,0.001294984715,612,0.003098654561,612,0.0004005370429,
711,0.1999394745,611,9.318958405E-7,611,0.001178113744,611,0.002906603506,611,9.318958405E-7,
710,0.2003520578,610,1.532476381E-5,610,0.001169963507,610,0.003111586208,610,1.532476381E-5,
709,0.2007787973,609,6.748996384E-5,609,0.001217776793,609,0.003351463471,609,6.748996384E-5,
708,0.2012973279,608,0.0001554471673,608,0.001249784953,608,0.003476227168,608,0.0001554471673,
707,0.2019188851,607,0.0002382421226,607,0.00141835364,607,0.003972426988,607,0.0002382421226,
706,0.2023551613,606,0.0001835444127,606,0.001201293315,606,0.004213642795,606,0.0001835444127,
705,0.2029145807,605,0.000184528486,605,0.001245397609,605,0.004484389909,605,0.000184528486,
704,0.2034551948,604,0.0001570526802,604,0.001343616634,604,0.004795270506,604,0.0001570526802,
703,0.2040795684,603,0.0001483778324,603,0.001393007115,603,0.005288447719,603,0.0001483778324,
702,0.2045941353,602,0.0001402210328,602,0.001204641885,602,0.005954228342,602,0.0001402210328,
701,0.2050866187,601,0.0001160881948,601,0.00131521048,601,0.006480935961,601,0.0001160881948,
700,0.2057671696,600,0.0002263800125,600,0.001360988361,600,0.007135864813,600,0.0002263800125,
699,0.2063471079,599,0.0003827632463,599,0.001371063758,599,0.008163436316,599,0.0003827632463,
698,0.2069302052,598,0.0002174965921,598,0.001289610285,598,0.009064015001,598,0.0002174965921,
697,0.2074577361,597,0.0002306016395,597,0.001323960605,597,0.01016730815,597,0.0002306016395,
696,0.2081127912,596,0.0002162016463,596,0.001319131232,596,0.01154968701,596,0.0002162016463,
695,0.2086393386,595,0.0002473590721,595,0.001470661722,595,0.01317029353,595,0.0002473590721,
694,0.2093257308,594,0.0003060799791,594,0.001290908433,594,0.01496466529,594,0.0003060799791,
693,0.2099864632,593,0.0002520730486,593,0.001385034644,593,0.01718521491,593,0.0002520730486,
692,0.2105405033,592,0.0001249954366,592,0.00137706229,592,0.01984443702,592,0.0001249954366,
691,0.211205706,591,0.0002532904036,591,0.001566229737,591,0.02307076193,591,0.0002532904036,
690,0.2116134912,590,0.0002279598848,590,0.001301241922,590,0.02642078139,590,0.0002279598848,
689,0.2123237699,589,0.0004096573975,589,0.001434897305,589,0.03077197634,589,0.0004096573975,
688,0.2131363899,588,0.000256709347,588,0.001379918889,588,0.03540614247,588,0.000256709347,
687,0.2135568261,587,0.0003547049128,587,0.001414536033,587,0.04094420001,587,0.0003547049128,
686,0.214008227,586,0.0003252754395,586,0.001414536033,586,0.04764858633,586,0.0003252754395,
685,0.214675501,585,0.00035112974,585,0.00152965216,585,0.05519055575,585,0.00035112974,
684,0.2154265195,584,-2.127774496E-5,584,0.001288623665,584,0.06365711242,584,-2.127774496E-5,
683,0.2159345895,583,0.0003101210459,583,0.001565606217,583,0.07410254329,583,0.0003101210459,
682,0.2165593505,582,0.0003371920611,582,0.00148338906,582,0.08548432589,582,0.0003371920611,
681,0.2172115594,581,0.0003091366962,581,0.001397655578,581,0.09859284014,581,0.0003091366962,
680,0.2177855819,580,0.0003440572182,580,0.001549785025,580,0.1136415228,580,0.0003440572182,
679,0.2183590382,579,0.0004004334041,579,0.001647319295,579,0.1306784898,579,0.0004004334041,
678,0.2188798189,578,0.0002666037471,578,0.001454012818,578,0.1499270648,578,0.0002666037471,
677,0.2195128202,577,0.0003584096557,577,0.001655972213,577,0.1716388464,577,0.0003584096557,
676,0.2200565487,576,0.0002013618505,576,0.001617204514,576,0.1952521056,576,0.0002013618505,
675,0.2206315547,575,0.0002653345582,575,0.001692066668,575,0.2219963968,575,0.0002653345582,
674,0.2212442905,574,0.0001185998117,574,0.001465492998,574,0.2511828542,574,0.0001185998117,
673,0.2216909379,573,0.0001096927008,573,0.001454973826,573,0.2828643024,573,0.0001096927008,
672,0.2224144042,572,0.0001525987027,572,0.001654984779,572,0.3175685704,572,0.0001525987027,
671,0.2225864679,571,0.000263469643,571,0.001668652985,571,0.3547913432,571,0.000263469643,
670,0.2232634127,570,0.0001239338162,570,0.001567580737,570,0.394256413,570,0.0001239338162,
669,0.2237454355,569,4.719268327E-5,569,0.001718288404,569,0.4359168112,569,4.719268327E-5,
668,0.2241261452,568,-2.857716936E-5,568,0.001862236997,568,0.479465723,568,-2.857716936E-5,
667,0.2246642262,567,-0.00013567305,567,0.00169573084,567,0.5241930485,567,-0.00013567305,
666,0.2250857204,566,-0.0003439917928,566,0.00152741815,566,0.5698490143,566,-0.0003439917928,
665,0.2257256657,565,-0.0001868564868,565,0.001702461625,565,0.6152506471,565,-0.0001868564868,
664,0.2260249555,564,-0.0002793750318,564,0.001722394605,564,0.6604788899,564,-0.0002793750318,
663,0.2264173478,563,-0.0003354561049,563,0.001655400498,563,0.703766942,563,-0.0003354561049,
662,0.2269021422,562,-0.0002975866664,562,0.001773673575,562,0.7453405261,562,-0.0002975866664,
661,0.2271541059,561,-0.000425150065,561,0.001879577525,561,0.7842229009,561,-0.000425150065,
660,0.2274532914,560,-0.0004065817338,560,0.001808322151,560,0.8194160461,560,-0.0004065817338,
659,0.2277674526,559,-0.0005551578943,559,0.001658310881,559,0.8505491614,559,-0.0005551578943,
658,0.2282385677,558,-0.0005553130177,558,0.001780093648,558,0.8768335581,558,-0.0005553130177,
657,0.2286811322,557,-0.0004133574548,557,0.001894812682,557,0.8981103897,557,-0.0004133574548,
656,0.2290609628,556,-0.000376684533,556,0.001853606082,556,0.9144412875,556,-0.000376684533,
655,0.229205355,555,-0.000387650507,555,0.00187546981,555,0.9247748256,555,-0.000387650507,
654,0.2295420915,554,-0.0005233059637,554,0.001944317948,554,0.9295575023,554,-0.0005233059637,
653,0.2298839241,553,-0.0003543896019,553,0.001807022491,553,0.9292293787,553,-0.0003543896019,
652,0.2301695049,552,-0.0001966888085,552,0.001923854812,552,0.9236288071,552,-0.0001966888085,
651,0.2305273712,551,3.795048906E-5,551,0.001980644418,551,0.9130945206,551,3.795048906E-5,
650,0.2309881747,550,-0.0001695200044,550,0.001800238155,550,0.8980150223,550,-0.0001695200044,
649,0.2312621027,549,4.439670374E-5,549,0.002037285361,549,0.8795424104,549,4.439670374E-5,
648,0.2314894348,548,0.000347528694,548,0.002404565224,548,0.857021451,548,0.000347528694,
647,0.2322572172,547,0.0003261044039,547,0.002029249212,547,0.8317201734,547,0.0003261044039,
646,0.2323250175,546,0.000510771526,546,0.001994036837,546,0.8046845794,546,0.000510771526,
645,0.2328174263,545,0.0006926392671,545,0.001998561667,545,0.7754855156,545,0.0006926392671,
644,0.2333104312,544,0.001017448143,544,0.002099370351,544,0.7454405427,544,0.001017448143,
643,0.2335585654,543,0.001372985309,543,0.001883113291,543,0.7147626281,543,0.001372985309,
642,0.2338026315,542,0.00144809112,542,0.001804579049,542,0.6838456392,542,0.00144809112,
641,0.2343630642,541,0.001826414373,541,0.00181287108,541,0.6534302831,541,0.001826414373,
640,0.234746933,540,0.002100514714,540,0.002102179453,540,0.6234009266,540,0.002100514714,
639,0.2350404412,539,0.002629077295,539,0.00188888493,539,0.594209671,539,0.002629077295,
638,0.2355138659,538,0.00313168834,538,0.002081318758,538,0.566655755,538,0.00313168834,
637,0.2360231429,537,0.003478627885,537,0.001904224511,537,0.5405087471,537,0.003478627885,
636,0.2361826599,536,0.004178723786,536,0.00207986217,536,0.51569134,536,0.004178723786,
635,0.2366152704,535,0.004903641995,535,0.002066337038,535,0.4927279651,535,0.004903641995,
634,0.2371224016,534,0.005424698815,534,0.00181591243,534,0.4716550112,534,0.005424698815,
633,0.2372644842,533,0.006632754114,533,0.002016921993,533,0.4527623653,533,0.006632754114,
632,0.2376070321,532,0.007697127759,532,0.002058144193,532,0.4352086484,532,0.007697127759,
631,0.2378991842,531,0.00878091529,531,0.001981996698,531,0.4199413955,531,0.00878091529,
630,0.2384419292,530,0.01030284632,530,0.001793012023,530,0.406496793,530,0.01030284632,
629,0.2386253327,529,0.01205003913,529,0.001871154178,529,0.3948122561,529,0.01205003913,
628,0.2388090938,528,0.01387048606,528,0.002099214122,528,0.3846265376,528,0.01387048606,
627,0.239143759,527,0.01627622917,527,0.002125512576,527,0.3760935664,527,0.01627622917,
626,0.239345789,526,0.01894101314,526,0.001966212178,526,0.3685057461,526,0.01894101314,
625,0.2396233827,525,0.02225190401,525,0.002057831967,525,0.3621466756,525,0.02225190401,
624,0.239632234,524,0.02610931918,524,0.001971777063,524,0.3566202819,524,0.02610931918,
623,0.2398596257,523,0.03066137247,523,0.001929964987,523,0.3519836962,523,0.03066137247,
622,0.2399618626,522,0.03590406105,522,0.001946476172,522,0.3474343121,522,0.03590406105,
621,0.2400760353,521,0.04210979864,521,0.001986391377,521,0.3432485461,521,0.04210979864,
620,0.2401427627,520,0.0496414043,520,0.00203286414,520,0.3393643796,520,0.0496414043,
619,0.239956826,519,0.05808514729,519,0.001865330734,519,0.3349943459,519,0.05808514729,
618,0.239940092,518,0.06843603402,518,0.002217660192,518,0.3305742741,518,0.06843603402,
617,0.239965722,517,0.08014070988,517,0.001888468978,517,0.3255884945,517,0.08014070988,
616,0.239834711,516,0.09419006109,516,0.002128920285,516,0.320297718,516,0.09419006109,
615,0.2397437096,515,0.1101579443,515,0.0020278187,515,0.3144256175,515,0.1101579443,
614,0.2393759787,514,0.1283438057,514,0.001939663547,514,0.3074100018,514,0.1283438057,
613,0.2392110229,513,0.1496711224,513,0.001898504677,513,0.2997999787,513,0.1496711224,
612,0.2388110757,512,0.1741256416,512,0.002104832791,512,0.2917298973,512,0.1741256416,
611,0.2385695577,511,0.2010540813,511,0.001975261606,511,0.282817781,511,0.2010540813,
610,0.238311246,510,0.2317510992,510,0.001981736626,510,0.2734985948,510,0.2317510992,
609,0.2378298044,509,0.266063571,509,0.002247010125,509,0.2635698617,509,0.266063571,
608,0.237363115,508,0.3037722707,508,0.002035985002,508,0.2531177104,508,0.3037722707,
607,0.2368929833,507,0.3448318839,507,0.002030133503,507,0.2423521727,507,0.3448318839,
606,0.2364803106,506,0.388638705,506,0.002032630146,506,0.2315876484,506,0.388638705,
605,0.2361370921,505,0.4361679852,505,0.002189951483,505,0.2207088768,505,0.4361679852,
604,0.2356912345,504,0.4856659174,504,0.002075544558,504,0.2097040713,504,0.4856659174,
603,0.2352731973,503,0.5367819071,503,0.002129180357,503,0.1990309507,503,0.5367819071,
602,0.2349100709,502,0.5892874002,502,0.002100696787,502,0.1886601448,502,0.5892874002,
601,0.234363541,501,0.6422932744,501,0.002326170914,501,0.1784251928,501,0.6422932744,
600,0.2340403497,500,0.6951041818,500,0.002232308965,500,0.1685545444,500,0.6951041818,
599,0.2337431163,499,0.7461330891,499,0.002050601644,499,0.1589011401,499,0.7461330891,
598,0.233350262,498,0.7953888178,498,0.002046648413,498,0.1502287835,498,0.7953888178,
597,0.2330838293,497,0.8428140283,497,0.002215006389,497,0.1416031569,497,0.8428140283,
596,0.2328359634,496,0.8867142797,496,0.002295384416,496,0.1340385526,496,0.8867142797,
595,0.2325511873,495,0.9271070361,495,0.002161932178,495,0.1267443895,495,0.9271070361,
594,0.232274279,494,0.9644447565,494,0.002160449279,494,0.1197938994,494,0.9644447565,
593,0.2319909781,493,0.9977908731,493,0.002112870337,493,0.1135620326,493,0.9977908731,
592,0.2317697257,492,1.028450608,492,0.002115497598,492,0.1076412275,492,1.028450608,
591,0.2315398157,491,1.055634975,491,0.002165106125,491,0.1023191586,491,1.055634975,
590,0.2312702239,490,1.080099821,490,0.002307667397,490,0.09784705192,490,1.080099821,
589,0.2310242206,489,1.101685524,489,0.002251069294,489,0.09311133623,489,1.101685524,
588,0.2308647782,488,1.12207222,488,0.002421016339,488,0.08915558457,488,1.12207222,
587,0.2305592448,487,1.139504433,487,0.002126032719,487,0.0850494504,487,1.139504433,
586,0.2302206159,486,1.156214595,486,0.002092425246,486,0.08173496276,486,1.156214595,
585,0.2300391346,485,1.171525359,485,0.002071148716,485,0.07860678434,485,1.171525359,
584,0.2297849655,484,1.185364485,484,0.002364038955,484,0.07545898855,484,1.185364485,
583,0.2293580025,483,1.197340131,483,0.002338350751,483,0.07248850167,483,1.197340131,
582,0.2289768904,482,1.207847238,482,0.002260124544,482,0.06964839995,482,1.207847238,
581,0.228732273,481,1.216750741,481,0.002162998775,481,0.06686492264,481,1.216750741,
580,0.2283506989,480,1.223632455,480,0.002399567515,480,0.06420754641,480,1.223632455,
579,0.2279994041,479,1.227613211,479,0.002167213243,479,0.06160660461,479,1.227613211,
578,0.2276921868,478,1.229637265,478,0.00232432317,478,0.05884912983,478,1.229637265,
577,0.2271298319,477,1.229354143,477,0.00234415452,477,0.05642006919,477,1.229354143,
576,0.2268088311,476,1.226490378,476,0.002382804872,476,0.05397860706,476,1.226490378,
575,0.2263388336,475,1.220807552,475,0.002378978767,475,0.05151098222,475,1.220807552,
574,0.2259885371,474,1.213027358,474,0.002276023617,474,0.04906320572,474,1.213027358,
573,0.2253700942,473,1.202778935,473,0.00242387969,473,0.04668719694,473,1.202778935,
572,0.2250727266,472,1.190039992,472,0.002350296592,472,0.044141002,472,1.190039992,
571,0.2245675772,471,1.176142931,471,0.002341786167,471,0.04203536361,471,1.176142931,
570,0.2242976576,470,1.160626292,470,0.002223748481,470,0.03982777148,470,1.160626292,
569,0.2235540748,469,1.143803358,469,0.002160137054,469,0.03765725717,469,1.143803358,
568,0.2229121774,468,1.126798034,468,0.002571161138,468,0.03591902182,468,1.126798034,
567,0.2225664109,467,1.108844399,467,0.002460116055,467,0.0335974358,467,1.108844399,
566,0.2222306281,466,1.091475487,466,0.00248518656,466,0.03206102178,466,1.091475487,
565,0.2218972296,465,1.073312998,465,0.002290934557,465,0.03019900434,465,1.073312998,
564,0.2214158326,464,1.056537747,464,0.002171948086,464,0.02849359438,464,1.056537747,
563,0.2209883183,463,1.040701509,463,0.00246417732,463,0.02726413868,463,1.040701509,
562,0.2204554975,462,1.025717974,462,0.002437520074,462,0.02564847469,462,1.025717974,
561,0.2200683653,461,1.012113452,461,0.002336216625,461,0.02447690442,461,1.012113452,
560,0.2195980996,460,1.000382423,460,0.00242757611,460,0.0231821537,460,1.000382423,
559,0.2193069756,459,0.9897717237,459,0.002242898801,459,0.02215635963,459,0.9897717237,
558,0.2189968526,458,0.9809625149,458,0.002280629473,458,0.02110493928,458,0.9809625149,
557,0.2185861021,457,0.9739720225,457,0.002445694059,457,0.02024982311,457,0.9739720225,
556,0.2182332277,456,0.968167901,456,0.002599284984,456,0.01958019286,456,0.968167901,
555,0.2178700864,455,0.9630559087,455,0.001614632201,455,0.01870058663,455,0.9630559087,
554,0.2175267339,454,0.9593023062,454,0.003032047534,454,0.01800217479,454,0.9593023062,
553,0.2171761245,453,0.9555958509,453,0.001914910506,453,0.01746783778,453,0.9555958509,
552,0.2170721292,452,0.9520577192,452,0.00273229857,452,0.01694718562,452,0.9520577192,
551,0.216629684,451,0.9480222464,451,0.002341499785,451,0.0163650848,451,0.9480222464,
550,0.2166053057,450,0.942510426,450,0.002563375281,450,0.01608213037,450,0.942510426,
549,0.2162472606,449,0.9362404943,449,0.002273811726,449,0.01582153514,449,0.9362404943,
548,0.2160859555,448,0.9280864,448,0.002645771252,448,0.01569872908,448,0.9280864,
547,0.2157891542,447,0.9171665907,447,0.0020881854,447,0.01524748188,447,0.9171665907,
546,0.2157681733,446,0.9044777751,446,0.002575665945,446,0.01535401493,446,0.9044777751,
545,0.2161788642,445,0.8889808655,445,0.002420521807,445,0.01520413067,445,0.8889808655,
544,0.2165082544,444,0.8719241023,444,0.002635093173,444,0.01541199815,444,0.8719241023,
543,0.2162122577,443,0.8520036936,443,0.002442283789,443,0.01539966092,443,0.8520036936,
542,0.2156434953,442,0.8303547502,442,0.00230025081,442,0.01552712917,442,0.8303547502,
541,0.2152469903,441,0.8072405457,441,0.002454779344,441,0.01601983979,441,0.8072405457,
540,0.2149424255,440,0.7825446129,440,0.002662075218,440,0.0166719202,440,0.7825446129,
539,0.2147010565,439,0.7573129535,439,0.002449781168,439,0.01676510833,439,0.7573129535,
538,0.2145740539,438,0.731449604,438,0.002421354642,438,0.01722927578,438,0.731449604,
537,0.2144561112,437,0.705232501,437,0.002472898457,437,0.01808542199,437,0.705232501,
536,0.2143469155,436,0.6804698706,436,0.002542206086,436,0.01882226951,436,0.6804698706,
535,0.2142815292,435,0.655328095,435,0.00248594163,435,0.01932999492,435,0.655328095,
534,0.2142687738,434,0.6314175725,434,0.002276570071,434,0.01993722469,434,0.6314175725,
533,0.2142038196,433,0.6089690328,433,0.002358807484,433,0.02076112106,433,0.6089690328,
532,0.2143456042,432,0.5881022811,432,0.002505207667,432,0.02193018422,432,0.5881022811,
531,0.2143473327,431,0.5686530471,431,0.002470529405,431,0.02276968583,431,0.5686530471,
530,0.2143321633,430,0.5507876873,430,0.002414690796,430,0.02343378961,430,0.5507876873,
529,0.2144784331,429,0.5344130993,429,0.002438561292,429,0.02439031564,429,0.5344130993,
528,0.2146914154,428,0.5200529695,428,0.002629988827,428,0.02538191341,428,0.5200529695,
527,0.215015471,427,0.5059488416,427,0.002450510161,427,0.02604722418,427,0.5059488416,
526,0.2152507752,426,0.493296653,426,0.002454753267,426,0.02682533488,426,0.493296653,
525,0.2154542804,425,0.4816228151,425,0.002469253726,425,0.02747104876,425,0.4816228151,
524,0.2157144845,424,0.4705373943,424,0.00254572113,424,0.02799721994,424,0.4705373943,
523,0.2159394026,423,0.4593670368,423,0.002569286386,423,0.02850835584,423,0.4593670368,
522,0.2164143771,422,0.4486708641,422,0.002489846898,422,0.02930983342,422,0.4486708641,
521,0.2166848928,421,0.437480092,421,0.002645719098,421,0.02971057408,421,0.437480092,
520,0.2170204967,420,0.4258134365,420,0.002323568333,420,0.02973122522,420,0.4258134365,
519,0.2175732553,419,0.4139173329,419,0.002843960421,419,0.03030144237,419,0.4139173329,
518,0.2181311995,418,0.4014233649,418,0.00245079631,418,0.03056912683,418,0.4014233649,
517,0.218451187,417,0.3883378506,417,0.002385694068,417,0.03079709597,417,0.3883378506,
516,0.2191273868,416,0.3747006953,416,0.002545356518,416,0.03114325367,416,0.3747006953,
515,0.2196130306,415,0.360758692,415,0.002448063111,415,0.03133580089,415,0.360758692,
514,0.2200944871,414,0.3469132781,414,0.00274373428,414,0.03130405769,414,0.3469132781,
513,0.2206406742,413,0.3327724636,413,0.002605300397,413,0.03175902367,413,0.3327724636,
512,0.2214101404,412,0.3187705278,412,0.002365444321,412,0.03173354268,412,0.3187705278,
511,0.2219973058,411,0.305087775,411,0.002624311484,411,0.0322207436,411,0.305087775,
510,0.2226675898,410,0.2920037806,410,0.002656501485,410,0.03216010705,410,0.2920037806,
509,0.2232922465,409,0.2795709074,409,0.002533092862,409,0.03264223412,409,0.2795709074,
508,0.2240877599,408,0.2679331303,408,0.002690048655,408,0.0328335464,408,0.2679331303,
507,0.2248569429,407,0.2569512129,407,0.002598790219,407,0.03320977837,407,0.2569512129,
506,0.2256870121,406,0.247532174,406,0.002667857334,406,0.03380515054,406,0.247532174,
505,0.2266060412,405,0.2384585589,405,0.00241599232,405,0.03351432458,405,0.2384585589,
504,0.2273782492,404,0.2308726758,404,0.002596394392,404,0.03431762382,404,0.2308726758,
503,0.2282996029,403,0.2238595039,403,0.002559078857,403,0.03410507366,403,0.2238595039,
502,0.2292416841,402,0.2182342112,402,0.002773041604,402,0.03446133435,402,0.2182342112,
501,0.2303662747,401,0.2128929198,401,0.002387151821,401,0.03447915614,401,0.2128929198,
500,0.2314006984,400,0.2089273632,400,0.002626577159,400,0.0349766016,400,0.2089273632,
499,0.2324680984,399,0.2051318735,399,0.002469982719,399,0.03467105702,399,0.2051318735,
498,0.2335769683,398,0.2020653635,398,0.002441216493,398,0.03464952484,398,0.2020653635,
497,0.2348315567,397,0.1998067498,397,0.002726749983,397,0.03492860124,397,0.1998067498,
496,0.2360085547,396,0.1973398626,396,0.0025839468,396,0.03449011594,396,0.1973398626,
495,0.237326175,395,0.1950350553,395,0.002701274818,395,0.0341386497,395,0.1950350553,
494,0.2385443598,394,0.1934319586,394,0.002703514881,394,0.03377778456,394,0.1934319586,
493,0.2399807125,393,0.1920917481,393,0.002504452597,393,0.03348916024,393,0.1920917481,
492,0.2413646877,392,0.1903398931,392,0.002618191298,392,0.03290525079,392,0.1903398931,
491,0.2427732348,391,0.1894038171,391,0.00250458275,391,0.03206681833,391,0.1894038171,
490,0.2442415208,390,0.1882352829,390,0.002653037664,390,0.03165008873,390,0.1882352829,
489,0.2455745488,389,0.1870439351,389,0.002637098543,389,0.03124388307,389,0.1870439351,
488,0.2471294403,388,0.186364755,388,0.002639416605,388,0.0307075996,388,0.186364755,
487,0.2488260567,387,0.1856493801,387,0.002819103654,387,0.03026622161,387,0.1856493801,
486,0.2504623234,386,0.1848331541,386,0.002748814179,386,0.02944560722,386,0.1848331541,
485,0.2520395815,385,0.1841800511,385,0.002330022631,385,0.02874423563,385,0.1841800511,
484,0.2538161278,384,0.1839534342,384,0.002585092559,384,0.02863525227,384,0.1839534342,
483,0.2552635372,383,0.1831759065,383,0.002627879381,383,0.02819456346,383,0.1831759065,
482,0.2569784522,382,0.1830863953,382,0.002908870811,382,0.02814821526,382,0.1830863953,
481,0.2586302459,381,0.1822326332,381,0.002479094546,381,0.02772443928,381,0.1822326332,
480,0.2604292035,380,0.1818502396,380,0.00246797828,380,0.02769530192,380,0.1818502396,
479,0.2619994879,379,0.1814909577,379,0.002732819412,379,0.02765808441,379,0.1814909577,
478,0.263586998,378,0.1806767285,378,0.002620040439,378,0.02773293667,378,0.1806767285,
477,0.2655180395,377,0.1796661913,377,0.002518199617,377,0.02762489766,377,0.1796661913,
476,0.2672713101,376,0.1791772395,376,0.002444236306,376,0.02817091905,376,0.1791772395,
475,0.2689003944,375,0.1781785339,375,0.002542127855,375,0.02837710269,375,0.1781785339,
474,0.2706267536,374,0.1778707653,374,0.002912154421,374,0.02960761078,374,0.1778707653,
473,0.2723618746,373,0.1765462458,373,0.002838019514,373,0.03022867069,373,0.1765462458,
472,0.2737693191,372,0.1753046215,372,0.002510857536,372,0.03113980591,372,0.1753046215,
471,0.2757629454,371,0.1745288968,371,0.002542987233,371,0.03287344426,371,0.1745288968,
470,0.2772300541,370,0.1729479581,370,0.002409615088,370,0.03414097428,370,0.1729479581,
469,0.2791516483,369,0.1722144485,369,0.002804799937,369,0.03696485981,369,0.1722144485,
468,0.280815661,368,0.1706910431,368,0.002864388749,368,0.03919354826,368,0.1706910431,
467,0.2822796404,367,0.1692710668,367,0.002632332733,367,0.04161804914,367,0.1692710668,
466,0.2839531302,366,0.167759195,366,0.00264842785,366,0.04473514482,366,0.167759195,
465,0.2854176462,365,0.166249305,365,0.002577983541,365,0.04809790477,365,0.166249305,
464,0.2869853079,364,0.1646660864,364,0.002554496052,364,0.05215943232,364,0.1646660864,
463,0.2887423038,363,0.1632234603,363,0.002354200697,363,0.05544415116,363,0.1632234603,
462,0.2903584242,362,0.1614949554,362,0.002735164016,362,0.0597941801,362,0.1614949554,
461,0.2918342948,361,0.1594744921,361,0.002706171712,361,0.06404141337,361,0.1594744921,
460,0.2933875918,360,0.1580023468,360,0.002504738979,360,0.06787180901,360,0.1580023468,
459,0.2948812842,359,0.1559339017,359,0.002619024599,359,0.07165492326,359,0.1559339017,
458,0.2963692546,358,0.1548869908,358,0.002859776607,358,0.07532334328,358,0.1548869908,
457,0.2979862094,357,0.1526868343,357,0.002917210106,357,0.07823731005,357,0.1526868343,
456,0.2994306982,356,0.150699228,356,0.002546580276,356,0.08062710613,356,0.150699228,
455,0.3007950783,355,0.1490000188,355,0.002439706819,355,0.08210285753,355,0.1490000188,
454,0.3021196723,354,0.1471477896,354,0.002679812256,354,0.08308248967,354,0.1471477896,
453,0.3037179112,353,0.1461761594,353,0.002526531462,353,0.08332164586,353,0.1461761594,
452,0.3051774204,352,0.1446852684,352,0.002445199527,352,0.08213482052,352,0.1446852684,
451,0.3065348864,351,0.1436338872,351,0.002657230711,351,0.08039104939,351,0.1436338872,
450,0.3080463111,350,0.1433226764,350,0.002650224837,350,0.07825696468,350,0.1433226764,
449,0.3094962835,349,0.1417509764,349,0.001853658003,349,0.07395489514,349,0.1417509764,
448,0.3108873665,348,0.1413814873,348,0.00193191506,348,0.07121027261,348,0.1413814873,
447,0.3121748567,347,0.1413732469,347,0.00132105255,347,0.06781694293,347,0.1413732469,
446,0.3135988116,346,0.1403925717,346,0.001296438626,346,0.06454031169,346,0.1403925717,
445,0.3149285614,345,0.1423829794,345,0.001557578682,345,0.06248898432,345,0.1423829794,
444,0.3162206709,344,0.1432827562,344,0.002075180411,344,0.05955207348,344,0.1432827562,
443,0.3176069856,343,0.1444450617,343,0.0009462562739,343,0.05774375051,343,0.1444450617,
442,0.3187243938,342,0.1461047977,342,0.001790412702,342,0.05593620986,342,0.1461047977,
441,0.3201257885,341,0.1474546343,341,0.0006647942937,341,0.05441311002,341,0.1474546343,
440,0.3215318322,340,0.1495388448,340,0.001070797793,340,0.05321626365,340,0.1495388448,
439,0.3229444325,339,0.1522574574,339,0.001652828068,339,0.05189602077,339,0.1522574574,
438,0.3240021169,338,0.1556869894,338,0.001047754893,338,0.05007658154,338,0.1556869894,
437,0.3254748881,337,0.1584186107,337,0.001707477262,337,0.04904393479,337,0.1584186107,
436,0.3266133368,336,0.161640957,336,0.001539575635,336,0.04739450663,336,0.161640957,
435,0.3278516233,335,0.1648818254,335,0.0005794036551,335,0.04535329342,335,0.1648818254,
434,0.3289330304,334,0.1697384566,334,0.002078561578,334,0.0441567041,334,0.1697384566,
433,0.3301194608,333,0.1734449416,333,0.001954120817,333,0.04300635681,333,0.1734449416,
432,0.3312559426,332,0.1778159887,332,0.001446091221,332,0.04104633257,332,0.1778159887,
431,0.3325715065,331,0.1825681329,331,0.001748748007,331,0.04077703133,331,0.1825681329,
430,0.3337571621,330,0.1864183992,330,0.0009039721335,330,0.03992223367,330,0.1864183992,
429,0.3347208798,329,0.1927199364,329,0.002338194521,329,0.04103651643,329,0.1927199364,
428,0.3358409405,328,0.1960778981,328,0.001286728424,328,0.04131599516,328,0.1960778981,
427,0.3368255794,327,0.2015386522,327,0.002038273728,327,0.0418747589,327,0.2015386522,
426,0.3379106522,326,0.2059775144,326,0.001652152394,326,0.04369446635,326,0.2059775144,
425,0.3390461802,325,0.2101956606,325,0.001396824606,325,0.04563637078,325,0.2101956606,
424,0.3399751782,324,0.2147113681,324,0.00184903061,324,0.0488435775,324,0.2147113681,
423,0.3411530554,323,0.2176872492,323,0.001380126574,323,0.05190681294,323,0.2176872492,
422,0.3418615758,322,0.2218130529,322,0.002304909052,322,0.05697205663,322,0.2218130529,
421,0.3430278301,321,0.2244518399,321,0.001951806596,321,0.06144238636,321,0.2244518399,
420,0.3439129591,320,0.2271977365,320,0.001995389117,320,0.06652138382,320,0.2271977365,
419,0.3449282348,319,0.2299804538,319,0.001951494603,319,0.07234886289,319,0.2299804538,
418,0.345703572,318,0.2316468209,318,0.001513702446,318,0.07874540985,318,0.2316468209,
417,0.3466345072,317,0.2340988368,317,0.001611254527,317,0.08512656391,317,0.2340988368,
416,0.3475166261,316,0.2369104475,316,0.00156861986,316,0.09261444956,316,0.2369104475,
415,0.348271817,315,0.239740923,315,0.001793557778,315,0.09997690469,315,0.239740923,
414,0.349317342,314,0.2429142445,314,0.001754128141,314,0.107549198,314,0.2429142445,
413,0.349914968,313,0.2457182407,313,0.001632118714,313,0.1136668175,313,0.2457182407,
412,0.3506289423,312,0.2484657764,312,0.001732218429,312,0.1207389012,312,0.2484657764,
411,0.3513446748,311,0.2514288425,311,0.001565398416,311,0.1259608418,311,0.2514288425,
410,0.3521945179,310,0.2546493411,310,0.001948712277,310,0.1315211654,310,0.2546493411,
409,0.3527916372,309,0.2562621236,309,0.001451883116,309,0.1351804882,309,0.2562621236,
408,0.3535158038,308,0.2594004869,308,0.002029119059,308,0.1383943856,308,0.2594004869,
407,0.3542116284,307,0.2623063326,307,0.001412354526,307,0.140574947,307,0.2623063326,
406,0.35469684,306,0.2650217712,306,0.001590962987,306,0.1417846233,306,0.2650217712,
405,0.3557826579,305,0.2698966861,305,0.001910750521,305,0.1423314959,305,0.2698966861,
404,0.3563866317,304,0.2734703124,304,0.001734713442,304,0.1429814994,304,0.2734703124,
403,0.3570711315,303,0.2785467803,303,0.002017832128,303,0.1432507783,303,0.2785467803,
402,0.3578279912,302,0.2845597565,302,0.002121298341,302,0.1433663964,302,0.2845597565,
401,0.3583883643,301,0.290682435,301,0.001860989141,301,0.1432061046,301,0.290682435,
400,0.3588556051,300,0.2985490859,300,0.002051225863,300,0.1432115436,300,0.2985490859,
399,0.3596439362,299,0.3058269322,299,0.001819889643,299,0.1434265375,299,0.3058269322,
398,0.3600907028,298,0.3137138188,298,0.002161828103,298,0.1438775808,298,0.3137138188,
397,0.3610443175,297,0.3228285909,297,0.002028729068,297,0.1436567307,297,0.3228285909,
396,0.361497283,296,0.330765754,296,0.002302801004,296,0.1447526067,296,0.330765754,
395,0.3621325195,295,0.3397729099,295,0.001921098679,295,0.1452115029,295,0.3397729099,
394,0.3629339039,294,0.3499462008,294,0.00206646719,294,0.1460839957,294,0.3499462008,
393,0.36341694,293,0.3597097397,293,0.001890236861,293,0.1469195038,293,0.3597097397,
392,0.3641349077,292,0.3710647523,292,0.001850096509,292,0.1489202082,292,0.3710647523,
391,0.3648328483,291,0.3823899627,291,0.001453805016,291,0.1503556371,291,0.3823899627,
390,0.3658716381,290,0.3958527148,290,0.00176649983,290,0.152755633,290,0.3958527148,
389,0.3663038015,289,0.4098505676,289,0.002054789104,289,0.1554524302,289,0.4098505676,
388,0.3670628965,288,0.424836129,288,0.002544549527,288,0.1584085524,288,0.424836129,
387,0.367749393,287,0.4402938485,287,0.002371196402,287,0.1599561721,287,0.4402938485,
386,0.3682664931,286,0.4563729167,286,0.002474174136,286,0.1620491892,286,0.4563729167,
385,0.368844837,285,0.4717125297,285,0.002306314185,285,0.1635997146,285,0.4717125297,
384,0.3699859977,284,0.4869592786,284,0.002549887169,284,0.1648954153,284,0.4869592786,
383,0.3706538677,283,0.5002124906,283,0.002389077796,283,0.1655678302,283,0.5002124906,
382,0.3715947866,282,0.5113939643,282,0.002714090515,282,0.1654933244,282,0.5113939643,
381,0.371871829,281,0.5201224685,281,0.002625248861,281,0.1651453525,281,0.5201224685,
380,0.3727175295,280,0.5252776146,280,0.002434734721,280,0.1643718183,280,0.5252776146,
379,0.37340042,279,0.5270887613,279,0.00271560112,279,0.1635430455,279,0.5270887613,
378,0.3743053377,278,0.5261436701,278,0.002657569479,278,0.163218528,278,0.5261436701,
377,0.375118345,277,0.5220826864,277,0.002477688715,277,0.1613117307,277,0.5220826864,
376,0.3758862317,276,0.517021358,276,0.002718518721,276,0.1616921127,276,0.517021358,
375,0.3765223324,275,0.5110692382,275,0.003138519591,275,0.1618173271,275,0.5110692382,
374,0.3773078918,274,0.5043179393,274,0.002857926534,274,0.1630803943,274,0.5043179393,
373,0.3778997958,273,0.4985453188,273,0.003168427153,273,0.1660229415,273,0.4985453188,
372,0.3787433207,272,0.493563652,272,0.002955051372,272,0.1702683717,272,0.493563652,
371,0.3794495761,271,0.4889864922,271,0.003342463868,271,0.1769618839,271,0.4889864922,
370,0.379851073,270,0.4850191474,270,0.002822621027,270,0.185309425,270,0.4850191474,
369,0.3808388114,269,0.4814799726,269,0.002780805109,269,0.1961359084,269,0.4814799726,
368,0.3814592361,268,0.479031831,268,0.003166262759,268,0.2087817341,268,0.479031831,
367,0.3820072412,267,0.4774486423,267,0.003547025844,267,0.2225934565,267,0.4774486423,
366,0.3826561272,266,0.4766809046,266,0.003647411475,266,0.2373593599,266,0.4766809046,
365,0.3837957084,265,0.4771102965,265,0.00323064765,265,0.2510733306,265,0.4771102965,
364,0.3842098713,264,0.4789111614,264,0.003116200911,264,0.2640975416,264,0.4789111614,
363,0.3849072754,263,0.4809603989,263,0.003053996712,263,0.2745621502,263,0.4809603989,
362,0.3855763972,262,0.484547317,262,0.003455404658,262,0.2830674648,262,0.484547317,
361,0.3863581121,261,0.4884430468,261,0.003445959184,261,0.2890537679,261,0.4884430468,
360,0.3870501518,260,0.4930822551,260,0.00303825154,260,0.2920973003,260,0.4930822551,
359,0.3878722489,259,0.4990375638,259,0.00326296105,259,0.2938912809,259,0.4990375638,
358,0.3884894848,258,0.5068264604,258,0.00370998797,258,0.2945692539,258,0.5068264604,
357,0.3891753256,257,0.5176076293,257,0.003893879708,257,0.2940025926,257,0.5176076293,
356,0.3899584711,256,0.5299360156,256,0.003521476407,256,0.292608887,256,0.5299360156,
355,0.3904550374,255,0.5448081493,255,0.003297233023,255,0.2896270752,255,0.5448081493,
354,0.3915842772,254,0.5636634231,254,0.003429573495,254,0.2854894102,254,0.5636634231,
353,0.3922825158,253,0.5840646625,253,0.003335681511,253,0.2805454433,253,0.5840646625,
352,0.3935238421,252,0.6090651155,252,0.003455508966,252,0.2743439972,252,0.6090651155,
351,0.3944048285,251,0.6362313628,251,0.003145246534,251,0.2665206492,251,0.6362313628,
350,0.3949712217,250,0.6682348251,250,0.003452847479,250,0.2589687705,250,0.6682348251,
349,0.3955229819,249,0.7040042877,249,0.003535856027,249,0.2507384419,249,0.7040042877,
348,0.3963648081,248,0.7429993153,248,0.003002905287,248,0.2437204272,248,0.7429993153,
347,0.3977033794,247,0.7861837745,247,0.003345959354,247,0.2380950451,247,0.7861837745,
346,0.398118794,246,0.8336516023,246,0.003108249046,246,0.2338455617,246,0.8336516023,
345,0.3995455801,245,0.885057807,245,0.00301539083,245,0.2314568013,245,0.885057807,
344,0.4009039402,244,0.9413912296,244,0.00309839379,244,0.2319271117,244,0.9413912296,
343,0.4017602503,243,1.003665924,243,0.003417467466,243,0.2349113524,243,1.003665924,
342,0.4028285444,242,1.071144342,242,0.003207098693,242,0.2399091423,242,1.071144342,
341,0.4045894742,241,1.144204497,241,0.003273654496,241,0.2474862635,241,1.144204497,
340,0.4062870145,240,1.219566584,240,0.003005641978,240,0.2556585073,240,1.219566584,
339,0.4071001709,239,1.296052217,239,0.003297937335,239,0.2647491992,239,1.296052217,
338,0.4085446,238,1.367316365,238,0.003186080605,238,0.2719503641,238,1.367316365,
337,0.4100206494,237,1.431707978,237,0.003237141529,237,0.2778546214,237,1.431707978,
336,0.4114094675,236,1.486427903,236,0.003571297973,236,0.2821828723,236,1.486427903,
335,0.4124737382,235,1.522838473,235,0.003398369532,235,0.2865107358,235,1.522838473,
334,0.4140762091,234,1.544464111,234,0.003549061716,234,0.2911094129,234,1.544464111,
333,0.4153508544,233,1.554782033,233,0.003667721059,233,0.2956596315,233,1.554782033,
332,0.4167912602,232,1.552004457,232,0.003325038822,232,0.3010836244,232,1.552004457,
331,0.4177550077,231,1.545479774,231,0.003607134335,231,0.3083661199,231,1.545479774,
330,0.4193198383,230,1.532606602,230,0.003595754039,230,0.3173657358,230,1.532606602,
329,0.4210880101,229,1.522835732,229,0.003859926248,229,0.3275381029,229,1.522835732,
328,0.4227965474,228,1.508524537,228,0.003659967799,228,0.3392689526,228,1.508524537,
327,0.423799336,227,1.501137853,227,0.00446315296,227,0.3523122966,227,1.501137853,
326,0.4246610701,226,1.494026184,226,0.003988598008,226,0.3652030826,226,1.494026184,
325,0.4261676073,225,1.485719323,225,0.004185048398,225,0.379917413,225,1.485719323,
324,0.4275693595,224,1.483531952,224,0.004599407315,224,0.3949134648,224,1.483531952,
323,0.4294852018,223,1.481130242,223,0.004964592867,223,0.4107663333,223,1.481130242,
322,0.4304212928,222,1.486618042,222,0.004670755472,222,0.4265412688,222,1.486618042,
321,0.4324188232,221,1.490213633,221,0.00489060441,221,0.4438923895,221,1.490213633,
320,0.4335393608,220,1.496266723,220,0.004977737553,220,0.462425977,220,1.496266723,
319,0.4349196851,219,1.510166645,219,0.00574126374,219,0.4822043478,219,1.510166645,
318,0.4360886812,218,1.521949768,218,0.005324819125,218,0.5046582222,218,1.521949768,
317,0.4374615252,217,1.539548755,217,0.00625768071,217,0.5264692903,217,1.539548755,
316,0.4391559958,216,1.560626268,216,0.006035406608,216,0.550322175,216,1.560626268,
315,0.4405940771,215,1.584460855,215,0.006212066859,215,0.5762317777,215,1.584460855,
314,0.4418058693,214,1.61527586,214,0.006598769687,214,0.6020589471,214,1.61527586,
313,0.4430647492,213,1.652920723,213,0.005938955117,213,0.6300287843,213,1.652920723,
312,0.4445959628,212,1.693316936,212,0.006350709591,212,0.6590409875,212,1.693316936,
311,0.4453644156,211,1.744765043,211,0.00728530623,211,0.6871868968,211,1.744765043,
310,0.4470871389,210,1.797916174,210,0.007671543863,210,0.7181898952,210,1.797916174,
309,0.4486815035,209,1.85543406,209,0.007693307009,209,0.7482952476,209,1.85543406,
308,0.45039922,208,1.92464447,208,0.006561713293,208,0.7769445777,208,1.92464447,
307,0.4515352249,207,1.999845266,207,0.00898057688,207,0.8065029979,207,1.999845266,
306,0.4531027377,206,2.08114934,206,0.008322572336,206,0.8345871568,206,2.08114934,
305,0.4544449151,205,2.15792799,205,0.008606798947,205,0.8619745374,205,2.15792799,
304,0.4563564658,204,2.249707222,204,0.008381023072,204,0.8872266412,204,2.249707222,
303,0.4573801458,203,2.316138506,203,0.00925867632,203,0.9126523137,203,2.316138506,
302,0.4595821798,202,2.389563084,202,0.008317875676,202,0.9335007668,202,2.389563084,
301,0.460609287,201,2.451234341,201,0.009720789269,201,0.9590384364,201,2.451234341,
300,0.462558955,200,2.506239176,200,0.01164967939,200,0.9809561968,200,2.506239176,
299,0.4637002051,,,,,,,,,
298,0.4658163786,,,,,,,,,
297,0.4670327604,,,,,,,,,
296,0.4686485827,,,,,,,,,
295,0.4699991047,,,,,,,,,
294,0.4711415172,,,,,,,,,
293,0.4730684161,,,,,,,,,
292,0.4746496677,,,,,,,,,
291,0.4757667184,,,,,,,,,
290,0.4777272046,,,,,,,,,
289,0.4785891175,,,,,,,,,
288,0.4798581898,,,,,,,,,
287,0.4812889099,,,,,,,,,
286,0.4829317927,,,,,,,,,
285,0.4837093353,,,,,,,,,
284,0.4849544466,,,,,,,,,
283,0.486636579,,,,,,,,,
282,0.4879482687,,,,,,,,,
281,0.4891855717,,,,,,,,,
280,0.4904855788,,,,,,,,,
279,0.4911462963,,,,,,,,,
278,0.4927218854,,,,,,,,,
277,0.4940119684,,,,,,,,,
276,0.4950929284,,,,,,,,,
275,0.4959734678,,,,,,,,,
274,0.497380048,,,,,,,,,
273,0.4985072911,,,,,,,,,
272,0.4997454584,,,,,,,,,
271,0.50108248,,,,,,,,,
270,0.5020665526,,,,,,,,,
269,0.5030892491,,,,,,,,,
268,0.5039483905,,,,,,,,,
267,0.5044204593,,,,,,,,,
266,0.505875051,,,,,,,,,
265,0.5067895651,,,,,,,,,
264,0.5075865984,,,,,,,,,
263,0.5081459284,,,,,,,,,
262,0.508919239,,,,,,,,,
261,0.5094287395,,,,,,,,,
260,0.5104835629,,,,,,,,,
259,0.5112142563,,,,,,,,,
258,0.5126647949,,,,,,,,,
257,0.5130803585,,,,,,,,,
256,0.5140203834,,,,,,,,,
255,0.5151389837,,,,,,,,,
254,0.5161454678,,,,,,,,,
253,0.5175080895,,,,,,,,,
252,0.5183685422,,,,,,,,,
251,0.5187926888,,,,,,,,,
250,0.5201274157,,,,,,,,,
249,0.5208963156,,,,,,,,,
248,0.5219032168,,,,,,,,,
247,0.5225358009,,,,,,,,,
246,0.5232457519,,,,,,,,,
245,0.5241910815,,,,,,,,,
244,0.5248363614,,,,,,,,,
243,0.5254695415,,,,,,,,,
242,0.5260651112,,,,,,,,,
241,0.5269833803,,,,,,,,,
240,0.5277332664,,,,,,,,,
239,0.5288208723,,,,,,,,,
238,0.5299170017,,,,,,,,,
237,0.5308549404,,,,,,,,,
236,0.5321619511,,,,,,,,,
235,0.5339990854,,,,,,,,,
234,0.5353215337,,,,,,,,,
233,0.5371008515,,,,,,,,,
232,0.5387052298,,,,,,,,,
231,0.5410881639,,,,,,,,,
230,0.5427930951,,,,,,,,,
229,0.5455163121,,,,,,,,,
228,0.5471624136,,,,,,,,,
227,0.5496526957,,,,,,,,,
226,0.5518708825,,,,,,,,,
225,0.5546982288,,,,,,,,,
224,0.5577050447,,,,,,,,,
223,0.560701251,,,,,,,,,
222,0.5643296242,,,,,,,,,
221,0.5678023696,,,,,,,,,
220,0.5721614957,,,,,,,,,
219,0.5759020448,,,,,,,,,
218,0.580152154,,,,,,,,,
217,0.5840195417,,,,,,,,,
216,0.5891693234,,,,,,,,,
215,0.5935170054,,,,,,,,,
214,0.5990548134,,,,,,,,,
213,0.6043219566,,,,,,,,,
212,0.6100347638,,,,,,,,,
211,0.6163759232,,,,,,,,,
210,0.6220372915,,,,,,,,,
209,0.6294990778,,,,,,,,,
208,0.6365426779,,,,,,,,,
207,0.6435426474,,,,,,,,,
206,0.65114218,,,,,,,,,
205,0.6607633829,,,,,,,,,
204,0.6688320637,,,,,,,,,
203,0.6792252064,,,,,,,,,
202,0.6876265407,,,,,,,,,
201,0.6975461245,,,,,,,,,
200,0.7084773779,,,,,,,,,

1111-cupegps1,
1111-cupegps1
Collection Time: 2017-11-11  04:47:35
Operator Name  :
Scan Software Version: 3.00(182)
Parameter List :
Instrument                        Cary 4000
Instrument Version                1.12
Start (nm)                        900.00
Stop (nm)                         200.00
X Mode                            Nanometers
Y Mode                            Abs
UV-Vis Scan Rate (nm/min)         600.000
UV-Vis Data Interval (nm)         1.000
UV-Vis Ave. Time (sec)            0.100
UV-Vis SBW (nm)                   2.000
Slit Height                       Full
Beam Mode                         Double
Signal-to-noise Mode              Off
UV Source                         On
Vis Source                        On
Third Source                      Off
Source Changeover (nm)            350.00
Baseline Correction               Off
Cycle Mode                        Off
Comments
Method Log     :
Method Name    : Default
Date/Time stamp: 2017-11-11  04:37:42
Method Modifications:
Sipper Type Changed: 2017-11-11  04:38:12, Old:Internal RSA, New:External sipper
End Method Modifications
<SBW (nm)> , 2.000
<Energy> , 575.44
<Slit height> , Full
<Current Wavelength> , 200.00

111111,
111111
Collection Time: 2018-1-5  02:39:54
Operator Name  :
Scan Software Version: 3.00(182)
Parameter List :
Instrument                        Cary 4000
Instrument Version                1.12
Start (nm)                        800.00
Stop (nm)                         200.00
X Mode                            Nanometers
Y Mode                            Abs
UV-Vis Scan Rate (nm/min)         600.000
UV-Vis Data Interval (nm)         1.000
UV-Vis Ave. Time (sec)            0.100
UV-Vis SBW (nm)                   2.000
Slit Height                       Full
Beam Mode                         Double
Signal-to-noise Mode              Off
UV Source                         On
Vis Source                        On
Third Source                      Off
Source Changeover (nm)            350.00
Baseline Correction               On
Baseline Type                     Baseline correction
Baseline File Name
Baseline Std Ref File Name
Cycle Mode                        Off
Comments
Method Log     :
Method Name    : Default
Date/Time stamp: 2018-1-5  02:16:34
Method Modifications:
Baseline Correction Changed: 2018-1-5  02:18:29, Old:0, New:1
Sipper Type Changed: 2018-1-5  02:18:29, Old:Internal RSA, New:External sipper
End Method Modifications
<SBW (nm)> , 2.000
<Energy> , 724.44
<Slit height> , Full
<Current Wavelength> , 200.00

blank,
blank
Collection Time: 2018-1-5  02:20:41
Operator Name  :
Scan Software Version: 3.00(182)
Parameter List :
Instrument                        Cary 4000
Instrument Version                1.12
Start (nm)                        800.00
Stop (nm)                         200.00
X Mode                            Nanometers
Y Mode                            Abs
UV-Vis Scan Rate (nm/min)         600.000
UV-Vis Data Interval (nm)         1.000
UV-Vis Ave. Time (sec)            0.100
UV-Vis SBW (nm)                   2.000
Slit Height                       Full
Beam Mode                         Double
Signal-to-noise Mode              Off
UV Source                         On
Vis Source                        On
Third Source                      Off
Source Changeover (nm)            350.00
Baseline Correction               On
Baseline Type                     Baseline correction
Baseline File Name
Baseline Std Ref File Name
Cycle Mode                        Off
Comments
Method Log     :
Method Name    : Default
Date/Time stamp: 2018-1-5  02:16:34
Method Modifications:
Baseline Correction Changed: 2018-1-5  02:18:29, Old:0, New:1
Sipper Type Changed: 2018-1-5  02:18:29, Old:Internal RSA, New:External sipper
End Method Modifications
<SBW (nm)> , 2.000
<Energy> , 724.44
<Slit height> , Full
<Current Wavelength> , 200.00

1,
1
Collection Time: 2018-1-5  02:22:37
Operator Name  :
Scan Software Version: 3.00(182)
Parameter List :
Instrument                        Cary 4000
Instrument Version                1.12
Start (nm)                        800.00
Stop (nm)                         200.00
X Mode                            Nanometers
Y Mode                            Abs
UV-Vis Scan Rate (nm/min)         600.000
UV-Vis Data Interval (nm)         1.000
UV-Vis Ave. Time (sec)            0.100
UV-Vis SBW (nm)                   2.000
Slit Height                       Full
Beam Mode                         Double
Signal-to-noise Mode              Off
UV Source                         On
Vis Source                        On
Third Source                      Off
Source Changeover (nm)            350.00
Baseline Correction               On
Baseline Type                     Baseline correction
Baseline File Name
Baseline Std Ref File Name
Cycle Mode                        Off
Comments
Method Log     :
Method Name    : Default
Date/Time stamp: 2018-1-5  02:16:34
Method Modifications:
Baseline Correction Changed: 2018-1-5  02:18:29, Old:0, New:1
Sipper Type Changed: 2018-1-5  02:18:29, Old:Internal RSA, New:External sipper
End Method Modifications
<SBW (nm)> , 2.000
<Energy> , 724.44
<Slit height> , Full
<Current Wavelength> , 200.00

111111,
111111
Collection Time: 2018-1-5  02:39:54
Operator Name  :
Scan Software Version: 3.00(182)
Parameter List :
Instrument                        Cary 4000
Instrument Version                1.12
Start (nm)                        800.00
Stop (nm)                         200.00
X Mode                            Nanometers
Y Mode                            Abs
UV-Vis Scan Rate (nm/min)         600.000
UV-Vis Data Interval (nm)         1.000
UV-Vis Ave. Time (sec)            0.100
UV-Vis SBW (nm)                   2.000
Slit Height                       Full
Beam Mode                         Double
Signal-to-noise Mode              Off
UV Source                         On
Vis Source                        On
Third Source                      Off
Source Changeover (nm)            350.00
Baseline Correction               On
Baseline Type                     Baseline correction
Baseline File Name
Baseline Std Ref File Name
Cycle Mode                        Off
Comments
Method Log     :
Method Name    : Default
Date/Time stamp: 2018-1-5  02:16:34
Method Modifications:
Baseline Correction Changed: 2018-1-5  02:18:29, Old:0, New:1
Sipper Type Changed: 2018-1-5  02:18:29, Old:Internal RSA, New:External sipper
End Method Modifications
<SBW (nm)> , 2.000
<Energy> , 724.44
<Slit height> , Full
<Current Wavelength> , 200.00

