3,,4,,Baseline 100%T,,blank,,3,,
Wavelength (nm),Abs,Wavelength (nm),Abs,Wavelength (nm),Abs,Wavelength (nm),Abs,Wavelength (nm),Abs,
800,0.0110818278,800,6.373593351E-5,800,0.005753592122,800,0.0006918096333,800,0.005257188343,
799,0.01126560103,799,1.941451956E-6,799,0.005554228555,799,0.001085615368,799,0.005330427084,
798,0.01107704826,798,3.735505743E-5,798,0.005578665528,798,0.0008583721938,798,0.005288054701,
797,0.01127705164,797,6.733462214E-5,797,0.005587501917,797,0.00103984063,797,0.005444515031,
796,0.01126613282,796,7.55876863E-6,796,0.005751283839,796,0.0009638974443,796,0.005113367457,
795,0.01113730483,795,8.65713082E-5,795,0.005521665327,795,0.001032964559,795,0.005581864156,
794,0.01132912561,794,0.0001353529369,794,0.005583306309,794,0.0008055154467,794,0.005359254312,
793,0.0111764539,793,0.0001107542921,793,0.005529582966,793,0.001057797112,793,0.005455681589,
792,0.01120357309,792,0.0003065721539,792,0.005382395815,792,0.001239660429,792,0.005648968741,
791,0.01118436921,791,7.616319635E-5,791,0.005449993536,791,0.001065867371,791,0.005460714921,
790,0.01117632072,790,0.0001806957589,790,0.005437123124,790,0.001046068268,790,0.005554831587,
789,0.01117374469,789,8.020213136E-5,789,0.005489104893,789,0.0008239549352,789,0.005480689928,
788,0.0112168286,788,0.0001004491714,788,0.00543825049,788,0.001063012867,788,0.005455865059,
787,0.01118431613,787,6.808063063E-6,787,0.005403573159,787,0.001116238418,787,0.005533358548,
786,0.01108103152,786,9.9128687E-5,786,0.005322853569,786,0.0009239204228,786,0.005647526123,
785,0.0109951878,785,-8.639876614E-5,785,0.005380298942,785,0.001012544264,785,0.005445956718,
784,0.01100291405,784,-3.468581417E-5,784,0.005199523177,784,0.001012751833,784,0.005492381752,
783,0.01108793542,783,-0.0002667506342,783,0.005146371201,783,0.001120157191,783,0.005634230562,
782,0.01083729882,782,-0.0002092635114,782,0.005119156092,782,0.001208042377,782,0.005568963941,
781,0.01089922152,781,-0.0003131590493,781,0.00503134029,781,0.001053204178,781,0.005632657092,
780,0.01088494062,780,-0.0003698564833,780,0.0049550361,780,0.001056966721,780,0.005656285211,
779,0.01072083041,779,-0.0003380944254,779,0.004976140335,779,0.0009467232157,779,0.005524129607,
778,0.01064352039,778,-0.000480695162,778,0.004847463686,778,0.00104373286,778,0.005604231264,
777,0.0106817754,777,-0.0005021562101,777,0.00481039891,777,0.001018589828,777,0.005588838831,
776,0.01060272194,776,-0.0005769255222,776,0.004676381126,776,0.0009940448217,776,0.005676531699,
775,0.01050190907,775,-0.0004970884183,775,0.004704694264,775,0.001042746822,775,0.005582703277,
774,0.01054630522,774,-0.0007128836587,774,0.004711550195,774,0.001004319289,774,0.005436415318,
773,0.01062373072,773,-0.000706319348,773,0.004532386549,773,0.001040671021,773,0.005644195713,
772,0.01038783696,772,-0.0008659536252,772,0.004490301013,772,0.0009766618023,772,0.005527616944,
771,0.01009650808,771,-0.0008853290346,771,0.00429935893,771,0.001184810535,771,0.005717604421,
770,0.01014303602,770,-0.0007949032006,770,0.004315332975,770,0.00110175705,770,0.005681383889,
769,0.01023459435,769,-0.00101323647,769,0.004262890667,769,0.0009597984026,769,0.005597937852,
768,0.009979999624,768,-0.001229653019,768,0.003999518231,768,0.001245761057,768,0.005795878824,
767,0.009914739057,767,-0.001282514422,767,0.004141036887,767,0.000958267774,767,0.00562274456,
766,0.009813291952,766,-0.001248341054,766,0.003976998851,766,0.0009703574469,766,0.005788350012,
765,0.009860980324,765,-0.001348220743,765,0.003932720516,765,0.001060651499,765,0.005713303108,
764,0.009740537032,764,-0.001403596369,764,0.003852247959,764,0.001065400196,764,0.005520511884,
763,0.009559023194,763,-0.001430584816,763,0.003806885798,763,0.0008615883999,763,0.005556483287,
762,0.009455224499,762,-0.001475114841,762,0.003570019035,762,0.001022274257,762,0.005725210998,
761,0.009492528625,761,-0.001667320379,761,0.003432026133,761,0.001183279091,761,0.005833630916,
760,0.009368246421,760,-0.001764164772,760,0.003268020926,760,0.001118003158,760,0.005895814858,
759,0.009356132708,759,-0.00182649889,759,0.003396908753,759,0.001062909141,759,0.005790999625,
758,0.009282503277,758,-0.002036018064,758,0.003343716031,758,0.00100385223,758,0.00582990516,
757,0.009231784381,757,-0.002007057192,757,0.00312475278,757,0.001131965895,757,0.005848585628,
756,0.009120556526,756,-0.002116293879,756,0.003120894078,756,0.001067683799,756,0.005752805155,
755,0.009050640278,755,-0.002336178208,755,0.002973269671,755,0.001015190734,755,0.005749814678,
754,0.008928784169,754,-0.002283548005,754,0.00294248946,754,0.0009566074004,754,0.005598016549,
753,0.008756192401,753,-0.002381902654,753,0.002846800489,753,0.0008870596648,753,0.00574884424,
752,0.008704293519,752,-0.002423349302,752,0.002670540009,752,0.001062441966,752,0.005892456044,
751,0.008649548516,751,-0.00261431234,751,0.002543091308,751,0.001144579495,751,0.005808025133,
750,0.008372023702,750,-0.002565936185,750,0.002419064054,750,0.00105717429,750,0.005956065375,
749,0.008641389199,749,-0.002658155048,749,0.002422135556,749,0.0009983776836,749,0.005910115782,
748,0.008485409431,748,-0.002790119732,748,0.002304206369,748,0.001049415558,748,0.005756661296,
747,0.008292308077,747,-0.002846494783,747,0.002213991713,747,0.001019731397,747,0.005818676669,
746,0.008146529086,746,-0.003133348655,746,0.002144008176,746,0.001007380895,746,0.005872409325,
745,0.008081674576,745,-0.002981693018,745,0.00193144707,745,0.001116030733,745,0.005888126325,
744,0.008086870424,744,-0.003140904475,744,0.001962857787,744,0.0009438954876,744,0.005784650799,
743,0.007938523777,743,-0.003391812555,743,0.001811519382,743,0.001004526857,743,0.00564018311,
742,0.007857859135,742,-0.00335122901,742,0.001607097453,742,0.001164331217,742,0.005994303618,
741,0.007765060291,741,-0.003449393669,741,0.001482817577,741,0.001214090618,741,0.006033779122,
740,0.007701343391,740,-0.003621577518,740,0.001459467225,740,0.001109309145,740,0.005981259979,
739,0.00740114646,739,-0.003769058036,739,0.001392150065,739,0.0009952902328,739,0.005934624933,
738,0.00739145698,738,-0.003698686371,738,0.001251861802,738,0.001014671871,738,0.005936068483,
737,0.007387718186,737,-0.003785070963,737,0.001197295845,737,0.001107855816,737,0.005899855867,
736,0.007172312587,736,-0.003802520456,736,0.001133445301,736,0.001104949159,736,0.005961576477,
735,0.007142996415,735,-0.004046686459,735,0.0009549989481,735,0.001003748504,735,0.006097566802,
734,0.007068057079,734,-0.004072742071,734,0.0008876562351,734,0.001049934537,734,0.005880097393,
733,0.006884525996,733,-0.004193971399,733,0.0008574643871,733,0.0010002458,733,0.005820145831,
732,0.006795721129,732,-0.004346947186,732,0.0005917679518,732,0.001236960641,732,0.005945148412,
731,0.006853388157,731,-0.00423109252,731,0.0006896317354,731,0.0008662830805,731,0.005808235146,
730,0.0066850367,730,-0.004440428689,730,0.0004661198182,730,0.001144423848,730,0.006082787178,
729,0.006541136652,729,-0.004503302276,729,0.0003635134199,729,0.001078582834,729,0.005936278496,
728,0.006472659297,728,-0.004511295352,728,0.0002596880076,728,0.001173597411,728,0.005984540563,
727,0.006426103413,727,-0.004791112617,727,0.0001005527374,727,0.00113118731,727,0.005930951331,
726,0.006402354222,726,-0.004905589391,726,0.000122198966,726,0.0009213522426,726,0.005926726386,
725,0.006194867659,725,-0.004816201515,725,6.873268285E-5,725,0.001022118493,725,0.005917515606,
724,0.006181266159,724,-0.005042911507,724,-0.0001394512074,724,0.001139933709,724,0.00598178478,
723,0.006008030381,723,-0.005017630756,723,-0.0002996043768,723,0.001170067349,723,0.006045958493,
722,0.005995878484,722,-0.005029196851,722,-0.0002225622884,722,0.0009797752136,722,0.005785805173,
721,0.005894922651,721,-0.00528755784,721,-0.0004850391706,721,0.001123375376,721,0.006016324274,
720,0.00580513943,720,-0.005357621703,720,-0.000514618645,720,0.001195374993,720,0.005974357482,
719,0.005716607906,719,-0.005396228284,719,-0.0002850662568,719,0.0008090165211,719,0.005541512277,
718,0.005731847137,718,-0.005392086692,718,-0.0005859734374,718,0.0009448294295,718,0.005935779773,
717,0.005584879778,717,-0.005568971392,717,-0.0006454785471,717,0.0009191731806,717,0.005993988831,
716,0.005460662302,716,-0.005534929223,716,-0.0008053418715,716,0.001083383686,716,0.005996875931,
715,0.00544674322,715,-0.005629228428,715,-0.0007658079267,715,0.0009649352287,715,0.005827780347,
714,0.005382238422,714,-0.0058656279,714,-0.0008655402926,714,0.0009037646232,714,0.005807054695,
713,0.005288866814,713,-0.005813117139,713,-0.001026200713,713,0.001163137262,713,0.005912372377,
712,0.005167955998,712,-0.005883504637,712,-0.001050733612,712,0.001081333496,712,0.005924758036,
711,0.005132907536,711,-0.005937232636,711,-0.001115597202,711,0.001053411746,711,0.00591090275,
710,0.005131990649,710,-0.006029759534,710,-0.001265428145,710,0.001181721687,710,0.00602002535,
709,0.005022410303,709,-0.00606657099,709,-0.001361639588,709,0.001136040664,709,0.005877079908,
708,0.004966033157,708,-0.006230218336,708,-0.001478623366,708,0.001183798187,708,0.006065750495,
707,0.004885551985,707,-0.006269462407,707,-0.001437602681,707,0.001029254054,707,0.005930163898,
706,0.004835605621,706,-0.006207660772,706,-0.001481151558,706,0.0009838484693,706,0.005844650324,
705,0.004715867806,705,-0.006358908489,705,-0.001554359682,705,0.0009927476058,705,0.005907439161,
704,0.004701920319,704,-0.006462567486,704,-0.001764061628,704,0.001144839101,704,0.006096018013,
703,0.004654821008,703,-0.006456701551,703,-0.001764680375,703,0.001035611145,703,0.005946040619,
702,0.004642262124,702,-0.006507400889,702,-0.001716209459,702,0.0008738829056,702,0.005913500674,
701,0.004604142625,701,-0.006531014107,701,-0.001901195152,701,0.001131343073,701,0.005887706764,
700,0.004375757184,700,-0.006612860132,700,-0.002036893973,700,0.001134742983,700,0.006075988058,
699,0.004437758587,699,-0.006677408237,699,-0.002019476611,699,0.001131031662,699,0.005999736488,
698,0.004424787592,698,-0.006772784982,698,-0.002104032086,698,0.001090935315,698,0.006007662974,
697,0.004375208169,697,-0.006792051252,697,-0.001950573176,697,0.0009004703024,697,0.005731505807,
696,0.004189308733,696,-0.006864369847,696,-0.002249917015,696,0.00114120543,696,0.006033227779,
695,0.004149896093,695,-0.006932701916,695,-0.002219734248,695,0.001120157191,695,0.005950606894,
694,0.004172293935,694,-0.006994349416,694,-0.00226778863,694,0.001107855816,694,0.005952496547,
693,0.004020967986,693,-0.006904626265,693,-0.00230425084,693,0.001019523828,693,0.005923734512,
692,0.004064183682,692,-0.006994043943,692,-0.002478021663,692,0.001145669608,692,0.006053911988,
691,0.003962290939,691,-0.007188456599,691,-0.002399614546,691,0.0009761948604,691,0.005979895126,
690,0.00399186369,690,-0.007113543805,690,-0.002369545167,690,0.0009157749591,690,0.005834234413,
689,0.003937108908,689,-0.007083290257,689,-0.00247050589,689,0.0009298350196,689,0.005868027452,
688,0.003909499384,688,-0.00705196429,688,-0.002621208085,688,0.001144735259,688,0.00601742696,
687,0.003840599908,687,-0.007201288827,687,-0.002703588456,687,0.001120157191,687,0.006011390127,
686,0.003848643741,686,-0.007343945093,686,-0.002600623528,686,0.0009685413679,686,0.005943022668,
685,0.003902551252,685,-0.007294259965,685,-0.002696848242,685,0.0009429616039,685,0.005976588465,
684,0.003823624924,684,-0.007309074514,684,-0.002704977524,684,0.0009214559686,684,0.005917935167,
683,0.003659158479,683,-0.007334782276,683,-0.002893297002,683,0.00115317048,683,0.006219183095,
682,0.003695446067,682,-0.007399324793,682,-0.002862027381,682,0.0009911389789,682,0.006076040678,
681,0.003566234605,681,-0.007414899301,681,-0.002810386708,681,0.00101786328,681,0.005953100044,
680,0.003676936496,680,-0.007564506028,680,-0.003022722434,680,0.001066334429,680,0.006110535469,
679,0.003587923944,679,-0.007474086713,679,-0.003067243611,679,0.001139310887,679,0.006011048798,
678,0.003573412076,678,-0.007533927448,678,-0.003040922107,678,0.001088366145,678,0.006199725438,
677,0.00357510848,677,-0.007517186925,677,-0.003069711151,677,0.0009849381167,677,0.006066537928,
676,0.00348937884,676,-0.007585823536,676,-0.003138745669,676,0.000965142739,676,0.006023069844,
675,0.003342724638,675,-0.007656839676,675,-0.003212291515,675,0.001007588464,675,0.006114735734,
674,0.003412979888,674,-0.007797922473,674,-0.003252476919,674,0.001037998358,674,0.006165223196,
673,0.003501800122,673,-0.007719656453,673,-0.003298670286,673,0.00101586536,673,0.006190508604,
672,0.003376950743,672,-0.007754798979,672,-0.003431519028,672,0.001161294407,672,0.006160549819,
671,0.003468686016,671,-0.007705517113,671,-0.003359037917,671,0.0009943562327,671,0.00621477142,
670,0.003321308643,670,-0.007798990235,670,-0.003557497868,670,0.001132277423,670,0.006371540017,
669,0.00324736489,669,-0.007730794605,669,-0.00353433867,669,0.001060885028,669,0.006315513048,
668,0.003222302534,668,-0.007725301664,668,-0.003683953546,668,0.001089767553,668,0.006393238436,
667,0.003215469886,667,-0.007831889205,667,-0.003638468683,667,0.00101264799,667,0.006419062614,
666,0.003222015454,666,-0.007943890058,666,-0.003587895771,666,0.0010123885,666,0.006318585947,
665,0.003211140865,665,-0.007893460803,665,-0.003786661895,665,0.001130201039,665,0.006326202769,
664,0.003243896179,664,-0.007880038582,664,-0.003846038133,664,0.001070512342,664,0.006542318966,
663,0.003198441118,663,-0.00792096369,663,-0.003808576148,663,0.0010011798,663,0.006479464471,
662,0.00310804043,662,-0.008008342236,662,-0.003915718757,662,0.0009692159365,662,0.006433354225,
661,0.003065519268,661,-0.007899459451,661,-0.003918079194,661,0.0009588904213,661,0.006446280517,
660,0.00306293834,660,-0.008032941259,660,-0.004102642182,660,0.001156155253,660,0.006643267814,
659,0.003129654564,659,-0.008071920834,659,-0.004182588309,659,0.001150626922,659,0.006757202093,
658,0.003095030785,658,-0.008135185577,658,-0.004039095249,658,0.0009871694492,658,0.006597797386,
657,0.003074461129,657,-0.007947397418,657,-0.004135771189,657,0.0009403154836,657,0.006735748611,
656,0.003029492917,656,-0.008030400611,656,-0.004248267505,656,0.001060132519,656,0.006789489649,
655,0.002977648284,655,-0.008072683588,655,-0.004212071188,655,0.0009586309898,655,0.006711614318,
654,0.003096255939,654,-0.008129748516,654,-0.004243294708,654,0.001005720347,654,0.006857990287,
653,0.003024461912,653,-0.008037261665,653,-0.004241551738,653,0.001047806814,653,0.006820912007,
652,0.003193460172,652,-0.007895900868,652,-0.0043358244,652,0.00123566261,652,0.006870140322,
651,0.003127672942,651,-0.007958886214,651,-0.004214788321,651,0.0009505627095,651,0.006787991151,
650,0.003061608877,650,-0.008001531474,650,-0.004146540072,650,0.0008994326927,650,0.006733513903,
649,0.003182586282,649,-0.007987554185,649,-0.004230220802,649,0.0009484353941,649,0.006851547398,
648,0.003141387599,648,-0.007895545103,648,-0.004134745803,648,0.001015190734,648,0.006897570565,
647,0.003222354688,647,-0.007801329251,647,-0.004200278316,647,0.001070564264,647,0.007012282033,
646,0.003337037982,646,-0.007786074188,646,-0.004060740117,646,0.001011506421,646,0.006833244581,
645,0.00322081591,645,-0.007809465285,645,-0.003995083738,645,0.0009710838785,645,0.006919111125,
644,0.003337298753,644,-0.007751645986,644,-0.00405545719,644,0.001074612373,644,0.007091105916,
643,0.003454047721,643,-0.007608615328,643,-0.004020372871,643,0.001044615172,643,0.007091026753,
642,0.003597633447,642,-0.007526346017,642,-0.003812168492,642,0.0009716027416,642,0.006955856457,
641,0.003577744588,641,-0.007618738804,641,-0.003801699262,641,0.001128332457,641,0.006985501852,
640,0.003726201365,640,-0.00741433911,640,-0.003743446199,640,0.001117795589,640,0.007099288981,
639,0.003832190763,639,-0.007303321734,639,-0.003673327155,639,0.00110759621,639,0.007043852005,
638,0.003748290008,638,-0.007325110026,638,-0.003583223326,638,0.001103677554,638,0.006999812555,
637,0.00387413404,637,-0.007174249273,637,-0.003435936524,637,0.001104144612,637,0.007116550114,
636,0.004010020755,636,-0.007021196652,636,-0.003440867411,636,0.001162514323,636,0.007169970311,
635,0.00418457808,635,-0.007031384856,635,-0.003292812966,635,0.001099940506,635,0.007071346045,
634,0.004173679277,634,-0.006972340867,634,-0.003076034132,634,0.001051335828,634,0.007085132878,
633,0.004258969333,633,-0.006883937865,633,-0.002984623658,633,0.001033483422,633,0.007091474254,
632,0.004433260765,632,-0.006763814017,632,-0.002884142566,632,0.001028371858,632,0.007156785578,
631,0.004468618892,631,-0.006656912621,631,-0.002840425586,631,0.001157245366,631,0.007301890757,
630,0.004464172758,630,-0.006626932882,630,-0.002621671185,630,0.001039425493,630,0.007308708504,
629,0.004725026898,629,-0.006352020893,629,-0.002554716077,629,0.001092544291,629,0.007482938003,
628,0.004686586093,628,-0.006347021088,628,-0.002463710727,628,0.001051543397,628,0.007565087173,
627,0.004831574857,627,-0.006316049956,627,-0.002290552016,627,0.001015657792,627,0.007598014548,
626,0.005040165503,626,-0.006240425166,626,-0.002160908189,626,0.000966491818,626,0.007716916036,
625,0.005128271412,625,-0.006015616469,625,-0.002048384864,625,0.001162176835,625,0.007836087607,
624,0.005185717251,624,-0.005911390763,624,-0.001899494091,624,0.0009902569,624,0.00791195035,
623,0.005252183881,623,-0.005771686323,623,-0.001894494053,623,0.001161605818,623,0.008391684853,
622,0.005408762489,622,-0.005589415785,622,-0.001811444643,622,0.001118158922,622,0.008400974795,
621,0.005527852569,621,-0.005604032893,621,-0.001703265705,621,0.001131913974,621,0.008884103969,
620,0.005583385006,620,-0.005411925726,620,-0.001510405331,620,0.001214505988,620,0.009019558318,
619,0.005781817716,619,-0.00534770079,619,-0.001363291056,619,0.001054060413,619,0.009288109839,
618,0.006070396863,618,-0.005056472495,618,-0.001186388661,618,0.00101410097,618,0.009775510058,
617,0.006188145373,617,-0.00500033237,617,-0.001034826157,617,0.001073314925,617,0.01015843078,
616,0.006343302317,616,-0.004882143345,616,-0.0008265802171,616,0.0008295828593,616,0.01045462769,
615,0.006414097268,615,-0.004561504349,615,-0.0008103027358,615,0.001222683,615,0.01122198161,
614,0.006688769907,614,-0.004446526989,614,-0.0005790453288,614,0.001042176038,614,0.01196826156,
613,0.006821385119,613,-0.004288972355,613,-0.0004279947316,613,0.001060885028,613,0.01263469551,
612,0.007122391835,612,-0.004041916225,612,-0.0003742533445,612,0.001152547542,612,0.01348724309,
611,0.007205605041,611,-0.003815966193,611,4.639013423E-5,611,0.0009587866371,611,0.01427153498,
610,0.007462791633,610,-0.003625222715,610,5.855800919E-5,610,0.001137286425,610,0.0153425904,
609,0.007773809601,609,-0.00329332659,609,0.0003740838729,609,0.001120780129,609,0.01633070596,
608,0.007950677536,608,-0.003096699249,608,0.0005601710873,608,0.001058886992,608,0.01781283319,
607,0.008251729421,607,-0.002800356364,607,0.0008474786882,607,0.001059509697,607,0.01921214536,
606,0.008387911133,606,-0.002679200144,606,0.001099577174,606,0.001007328974,606,0.02088973857,
605,0.00883979816,605,-0.002334530465,605,0.001208146219,605,0.001095139422,605,0.02275921032,
604,0.008981925435,604,-0.00212082779,604,0.001504402957,604,0.001067528152,604,0.02490273118,
603,0.009262881242,603,-0.00194474915,603,0.001889534993,603,0.0009456336265,603,0.02702435106,
602,0.009469854645,602,-0.001649217797,602,0.002106783679,602,0.001010260894,602,0.02966913581,
601,0.009697441012,601,-0.001411233796,601,0.002341890242,601,0.001053100335,601,0.03287207708,
600,0.009973324835,600,-0.001123549533,600,0.002528900746,600,0.001181669766,600,0.03655669838,
599,0.0102876313,599,-0.0009546599467,599,0.002830333309,599,0.00106368761,599,0.04062024504,
598,0.01047443599,598,-0.0005852496251,598,0.00316329021,598,0.001024557627,598,0.04514969513,
597,0.01065800525,597,-0.0004411833652,597,0.003425242379,597,0.001124673057,597,0.05051059648,
596,0.01083146036,596,-0.0001592212939,596,0.003717977088,596,0.001175466226,596,0.05680229142,
595,0.0111217685,595,7.080389332E-5,595,0.004150967579,595,0.0009352568304,595,0.0639025718,
594,0.01139385533,594,0.0001428622636,594,0.004566130694,594,0.0009537017904,594,0.07217144966,
593,0.01164616924,593,0.000451245578,593,0.004744314123,593,0.001049052342,593,0.08210964501,
592,0.01201280765,592,0.000831683632,592,0.005062871147,592,0.0009180837078,592,0.09319204837,
591,0.01218909491,591,0.001131083467,591,0.005373747088,591,0.001007173327,591,0.1065407768,
590,0.01230246946,590,0.00123496179,590,0.005752962548,590,0.0009722773102,590,0.1216284856,
589,0.01269034483,589,0.00168910413,589,0.006021888927,589,0.001159218024,589,0.1392632723,
588,0.01311559696,588,0.001781523228,588,0.006427049171,588,0.00114958873,588,0.159751609,
587,0.013263667,587,0.001975313528,587,0.006807343569,587,0.000949317473,587,0.183350578,
586,0.01345784497,586,0.002333405893,586,0.007196182851,586,0.00087100378,586,0.2106356323,
585,0.01362694614,585,0.00242609228,585,0.007560688537,585,0.0009762467234,585,0.2421079725,
584,0.01409271639,584,0.002769811079,584,0.007872698829,584,0.0009795157239,584,0.2781167328,
583,0.01425545849,583,0.003194477176,583,0.008283601142,583,0.0009423389565,583,0.3200602233,
582,0.0142695019,582,0.003317969851,582,0.008597451262,582,0.001046405639,582,0.3676732183,
581,0.01485171821,581,0.003648716724,581,0.008850814775,581,0.00104868901,581,0.4213524163,
580,0.01499569323,580,0.003864287864,580,0.009284353815,580,0.001087276265,580,0.4834429026,
579,0.01523048431,579,0.004202847835,579,0.009414325468,579,0.001302046701,579,0.5530375242,
578,0.01562688872,578,0.00441772677,578,0.009886190295,578,0.001018537907,578,0.6312718391,
577,0.01586207375,577,0.004777577706,577,0.01012491155,577,0.001114006503,577,0.7188512087,
576,0.01614399813,576,0.0049197427,576,0.01061213855,576,0.001118963468,576,0.8153787255,
575,0.01633371599,575,0.005515215918,575,0.01092980057,575,0.001192000578,575,0.9229761958,
574,0.01668370329,574,0.005650620908,574,0.01114120893,574,0.001146448194,574,1.041981936,
573,0.01700088568,573,0.005895683542,573,0.01150999963,573,0.001148861949,573,1.169241667,
572,0.01743560843,572,0.00650198292,572,0.01173684932,572,0.001259001088,572,1.308472157,
571,0.01772985607,571,0.006631360855,571,0.01206539664,571,0.001241529593,571,1.458417654,
570,0.01799564622,570,0.006926055066,570,0.01227264479,570,0.001265932689,570,1.616037011,
569,0.01764500514,569,0.007079028524,569,0.01223808341,569,0.001221437007,569,1.780750513,
568,0.01802370697,568,0.007487257011,568,0.01248779893,568,0.001316534705,568,1.951061606,
567,0.0184371192,567,0.007629126776,567,0.0126552172,567,0.001421444234,567,2.126335621,
566,0.01860992797,566,0.007824516855,566,0.01284378953,566,0.001237168326,566,2.299633265,
565,0.01877269521,565,0.008174884133,565,0.01289413217,565,0.001542926766,565,2.466201067,
564,0.01913087443,564,0.008382791653,564,0.01297408435,564,0.00164615002,564,2.625335455,
563,0.01921163313,563,0.008610838093,563,0.01305597182,563,0.001618373673,563,2.767059088,
562,0.01939939335,562,0.008880509995,562,0.01324893534,562,0.001563268132,562,2.891055822,
561,0.01950686797,561,0.008971222676,561,0.01317232102,561,0.001673278399,561,2.994489431,
560,0.01973194815,560,0.009162987582,560,0.01317859162,560,0.001778897946,560,3.074882269,
559,0.01983330026,559,0.009237838909,559,0.01315922011,559,0.001754569937,559,3.137740374,
558,0.01987175085,558,0.009372055531,558,0.01297987159,558,0.001800342114,558,3.185844183,
557,0.01975215785,557,0.009283481166,557,0.01312941685,557,0.00178856717,557,3.217169285,
556,0.01977144554,556,0.009341162629,556,0.01294144057,556,0.001881787321,556,3.238026619,
555,0.0198237896,555,0.009216342121,555,0.01284168288,555,0.001761327614,555,3.252145529,
554,0.01962715201,554,0.009265393019,554,0.01270860247,554,0.001826050458,554,3.261785269,
553,0.01973647252,553,0.009244978428,553,0.01229274925,553,0.002077157144,553,3.263605118,
552,0.01949522644,552,0.00916214101,552,0.01244943682,552,0.001606136095,552,3.252131462,
551,0.01942862757,551,0.009024633095,551,0.01218874846,551,0.001803799183,551,3.242700815,
550,0.0193447452,550,0.008841911331,550,0.01182970311,550,0.001842895523,550,3.225585222,
549,0.01918230392,549,0.008582639508,549,0.01161391754,549,0.001853476046,549,3.198600531,
548,0.01893236116,548,0.008364687674,548,0.01137283538,548,0.001828597975,548,3.165856838,
547,0.01871599071,547,0.008206538856,547,0.01124538481,547,0.001735909027,547,3.119926453,
546,0.01837125048,546,0.007992730476,546,0.01088377275,546,0.002001630375,546,3.060450554,
545,0.01823911071,545,0.007762636058,545,0.01068289019,545,0.001976847881,545,2.99152112,
544,0.01793157123,544,0.007488732226,544,0.01037736423,544,0.002001370303,544,2.914517164,
543,0.01768663339,543,0.007195261773,543,0.01020165253,543,0.001678085886,543,2.826918125,
542,0.01746091247,542,0.006834586151,542,0.009948321618,542,0.001715507591,542,2.732835054,
541,0.01722547784,541,0.006532490719,541,0.009645245038,541,0.001631755033,541,2.635367632,
540,0.01707389764,540,0.006576771848,540,0.009457446635,540,0.001637211535,540,2.531200171,
539,0.0167923104,539,0.006206499878,539,0.009208039381,539,0.001693885773,539,2.430014849,
538,0.01666113362,538,0.006058295723,538,0.009091637097,538,0.001692898222,538,2.331026077,
537,0.01634247974,537,0.005788139999,537,0.008893720806,537,0.001547109219,537,2.236907959,
536,0.01613322645,536,0.005621433258,536,0.008631883189,536,0.001627233927,536,2.147172213,
535,0.01605024561,535,0.005423257127,535,0.008498000912,535,0.00169435353,535,2.063724518,
534,0.01592136174,534,0.005384702235,534,0.008362840861,534,0.00161943899,534,1.989502788,
533,0.01576910727,533,0.005027778447,533,0.008263892494,533,0.00158215547,533,1.921363831,
532,0.01565986872,532,0.004936472978,532,0.008094307035,532,0.001520456281,532,1.860539317,
531,0.01545274165,531,0.004982764833,531,0.008004806936,531,0.001491675037,531,1.807528019,
530,0.01535079628,530,0.004707782064,530,0.0078062783,530,0.001640329603,530,1.762758374,
529,0.01528888009,529,0.00449874904,529,0.007697549183,529,0.001523833256,529,1.723264575,
528,0.01522144955,528,0.004585672636,528,0.007674125955,528,0.001704826485,528,1.690472603,
527,0.01511910371,527,0.004408678971,527,0.007416103035,527,0.001566177816,527,1.66258812,
526,0.01520104799,526,0.004512323998,526,0.007315790281,526,0.001565502374,526,1.638439298,
525,0.01503671892,525,0.004409018904,525,0.007197604049,525,0.001669718418,525,1.617649794,
524,0.01490944717,524,0.004130818415,524,0.00729883695,524,0.001482038409,524,1.598960876,
523,0.01485423651,523,0.004083205946,523,0.007072319277,523,0.00168492028,523,1.580969572,
522,0.01490441058,522,0.004162467085,522,0.00693252543,522,0.001568386098,522,1.564068556,
521,0.01476678625,521,0.004101811443,521,0.006863223854,521,0.001655712374,521,1.545490503,
520,0.01477066986,520,0.003955943044,520,0.006808895152,520,0.001560332486,520,1.525784135,
519,0.01467276737,519,0.003888107371,519,0.006748026237,519,0.001447675517,519,1.504449368,
518,0.01454961766,518,0.003864444559,518,0.00655708788,518,0.001576595707,518,1.481027484,
517,0.01454825327,517,0.003815503325,517,0.00638832571,517,0.001660389593,517,1.454979539,
516,0.01446070429,516,0.003786830697,516,0.00630839495,516,0.001629728242,516,1.425750494,
515,0.01443766244,515,0.00358531368,515,0.0062415828,515,0.001542926766,515,1.394219279,
514,0.01419744175,514,0.003637987887,514,0.006124265958,514,0.001502506784,514,1.359244227,
513,0.01422780007,513,0.00346083194,513,0.005961603019,513,0.00151061127,513,1.321194053,
512,0.01414208114,512,0.003509968054,512,0.005921137054,512,0.001397110173,512,1.280781627,
511,0.01399608981,511,0.003347341903,511,0.005885476246,511,0.001531600486,511,1.238030791,
510,0.0141043216,510,0.003266795073,510,0.005668323021,510,0.001536146505,510,1.193229914,
509,0.01392490417,509,0.003188531846,509,0.005503628403,509,0.001639472088,509,1.146739006,
508,0.01403081883,508,0.003145533381,508,0.005330531858,508,0.001661143266,508,1.098577857,
507,0.01363004465,507,0.002916454338,507,0.005272201728,507,0.001563865575,507,1.049857259,
506,0.01355939917,506,0.002929745242,506,0.005194126628,506,0.001430508099,506,1.001289606,
505,0.0135785751,505,0.002838905435,505,0.004936786834,505,0.001696380554,505,0.9518769383,
504,0.01344972756,504,0.002774839057,504,0.004824507516,504,0.001604707097,504,0.9032338262,
503,0.01357539743,503,0.002722608158,503,0.004866860807,503,0.00145440246,503,0.855543375,
502,0.01330581121,502,0.002585274866,502,0.004627139308,502,0.00149224652,502,0.8094999194,
501,0.01325915661,501,0.002382700797,501,0.004617066588,501,0.001477285055,501,0.7646881938,
500,0.01308270171,500,0.002343712142,500,0.004519543145,500,0.001502506784,500,0.7221541405,
499,0.01320965309,499,0.002310556127,499,0.004301947542,499,0.001594808185,499,0.6815440655,
498,0.01305591874,498,0.002287291223,498,0.004167354666,498,0.001587663312,498,0.6435528994,
497,0.0128245661,497,0.002123223385,497,0.00407395605,497,0.001488973619,497,0.6072378755,
496,0.01271835901,496,0.00210241368,496,0.003977782559,496,0.001526768669,496,0.5737740993,
495,0.01271702629,495,0.001903262571,495,0.003864287864,495,0.001475778641,495,0.5429090858,
494,0.01272379607,494,0.001858935342,494,0.003778709797,494,0.001552304951,494,0.5139086246,
493,0.01258965954,493,0.001812273287,493,0.00380623294,493,0.001281717676,493,0.4872806668,
492,0.0125392722,492,0.001688974211,492,0.003600948257,492,0.00158096035,492,0.463119477,
491,0.01239595003,491,0.001785630011,491,0.00370614999,491,0.00156092993,491,0.4403431118,
490,0.01238806546,490,0.001717716572,490,0.003485177411,490,0.00169710815,490,0.4203222394,
489,0.01237810403,489,0.001600472024,489,0.003448437899,489,0.001412276644,489,0.4012435079,
488,0.0124236783,488,0.001626376412,488,0.003382403171,488,0.001495623263,488,0.3836920559,
487,0.01239118166,487,0.001504299114,487,0.003180135041,487,0.001562514692,487,0.3678849339,
486,0.01230361406,486,0.001395422267,486,0.003072167048,486,0.001582727069,486,0.3528305292,
485,0.01217596978,485,0.001307083759,485,0.002897899598,485,0.001770892413,485,0.3384854496,
484,0.01209922507,484,0.001330919331,484,0.003011324443,484,0.001597380266,484,0.3248461485,
483,0.01195258927,483,0.001279017539,483,0.002945747226,483,0.00159197615,483,0.3116796613,
482,0.01198989525,482,0.001144579495,482,0.002865040209,482,0.001571659464,482,0.2989545166,
481,0.01198981609,481,0.001032808796,481,0.003062078031,481,0.001332061831,481,0.2864665687,
480,0.01199119911,480,0.001076273271,480,0.002789532766,480,0.001336553833,480,0.2746136487,
479,0.01193308551,479,0.001158335479,479,0.002615196398,479,0.001800550031,479,0.2629887462,
478,0.01181704085,478,0.001125451643,478,0.002807848155,478,0.001420665067,478,0.2509172857,
477,0.01195242908,477,0.001190001843,477,0.002584988484,477,0.001657375367,477,0.2395576686,
476,0.01189916302,476,0.001108322875,476,0.002557933098,476,0.001478791586,476,0.2281182706,
475,0.01181204058,475,0.001047028345,475,0.002492320258,475,0.001542251324,475,0.216855973,
474,0.011844147,474,0.001071316772,474,0.002627775073,474,0.001500896295,474,0.2058943212,
473,0.01199814491,473,0.001043395605,473,0.002530176658,473,0.001565450337,473,0.1953796297,
472,0.01187772024,472,0.0009671144653,472,0.00240224856,472,0.001615801477,472,0.1848792732,
471,0.01200474426,471,0.0009462303133,471,0.002477766946,471,0.001556487521,471,0.1750068665,
470,0.01182015333,470,0.001038750866,470,0.002510128543,470,0.001297918498,470,0.1650146693,
469,0.01168929972,469,0.001139103202,469,0.002284636954,469,0.00157945347,469,0.1560091823,
468,0.01183028799,468,0.0009910870576,468,0.002355528064,468,0.001528119552,468,0.1470056772,
467,0.01186290197,467,0.0010149054,467,0.00230787578,467,0.001578492229,467,0.1387676001,
466,0.01188141759,466,0.0009078891017,466,0.00218258868,466,0.001821865211,466,0.1306693554,
465,0.01183672529,465,0.001078738482,465,0.002218622947,465,0.001612319844,465,0.1231896132,
464,0.01198473293,464,0.001027515507,464,0.002202725969,464,0.001603615819,464,0.1163532585,
463,0.0117292963,463,0.0009629635024,463,0.002271782141,463,0.001613411121,463,0.1096491069,
462,0.01201296784,462,0.000972225389,462,0.002378328005,462,0.001369739417,462,0.1033459902,
461,0.01195415854,461,0.00107731123,461,0.002191148233,461,0.001567061059,461,0.09792793542,
460,0.01198827196,460,0.001190598938,460,0.002250704914,460,0.001700590481,460,0.09278777987,
459,0.01204628684,459,0.001209781622,459,0.002118150936,459,0.001942081726,459,0.08793234825,
458,0.01200753823,458,0.0009473717655,458,0.002190836007,458,0.001564593054,458,0.08382147551,
457,0.01207098551,457,0.001074430766,457,0.002147129737,457,0.001521079801,457,0.0798451826,
456,0.01205312647,456,0.001232677256,456,0.002171479864,456,0.001485311193,456,0.07609469444,
455,0.01201246213,455,0.001316872309,455,0.002148534637,455,0.001745083369,455,0.07317663729,
454,0.01212437917,454,0.001116731437,454,0.002161724027,454,0.001490895753,454,0.07008238882,
453,0.01192523632,453,0.00115548051,453,0.002132405993,453,0.001460090512,453,0.06743845344,
452,0.0119997682,452,0.001105675823,452,0.002295436338,452,0.001513105002,452,0.06497520208,
451,0.01188282762,451,0.001105701784,451,0.002084179781,451,0.001515650656,451,0.06320533901,
450,0.0120044779,450,0.001107155113,450,0.002017832128,450,0.001595977345,450,0.06150301546,
449,0.01198651642,449,0.001162514323,449,0.001729619573,449,0.001852176269,449,0.0604813695,
448,0.01207159739,448,0.0009552064585,448,0.001849680557,448,0.001533600735,448,0.05924613401,
447,0.01191701554,447,0.001063739415,447,0.001842869562,447,0.001489389222,447,0.05857659504,
446,0.01212504506,446,0.001127294381,446,0.001752984477,446,0.001599978423,446,0.05809440836,
445,0.01190788951,445,0.001050661202,445,0.001708178897,445,0.001570230583,445,0.05786410347,
444,0.01183475647,444,0.001010209089,444,0.001659298316,444,0.001503130188,444,0.0582677871,
443,0.01183044724,443,0.001084525487,443,0.001557838521,443,0.001525937463,443,0.05884299427,
442,0.01183379907,442,0.0009859240381,442,0.001482843654,442,0.00171002408,442,0.05981057882,
441,0.01179983094,441,0.001003748504,441,0.001444688765,441,0.001701058238,441,0.06099087745,
440,0.01186965872,440,0.0007867136737,440,0.001497935038,440,0.001661506947,440,0.06250617653,
439,0.01187120192,439,0.0008965015295,439,0.001301527489,439,0.00158943003,439,0.06469476968,
438,0.0117673818,438,0.0009006778128,438,0.001543810009,438,0.001334190951,438,0.06686162949,
437,0.0116974907,437,0.001085952739,437,0.001265802886,437,0.001776714693,437,0.06956848502,
436,0.01191627048,436,0.001178165665,436,0.001253133873,436,0.0016663922,436,0.07235537469,
435,0.01196871419,435,0.0009001071448,435,0.001346966252,435,0.001458194456,435,0.07525303215,
434,0.01175317913,434,0.001057641348,434,0.001366882934,434,0.001531392685,434,0.07840406895,
433,0.01186465751,433,0.0009988187812,433,0.001246513915,433,0.001650775201,433,0.08190897852,
432,0.01192329451,432,0.001009197207,432,0.001197711215,432,0.001679593115,432,0.08535474539,
431,0.01192015503,431,0.001063479926,431,0.001164902234,431,0.001690507401,431,0.08885001391,
430,0.01199739985,430,0.001006031758,430,0.001102172304,430,0.001687441021,430,0.0925308615,
429,0.01197198685,429,0.0009548433009,429,0.001247682143,429,0.00147279154,429,0.09596519172,
428,0.01178325992,428,0.00100172474,428,0.0009712395258,428,0.001683205133,428,0.0993636325,
427,0.01181653515,427,0.001053852844,427,0.001139933709,427,0.001541108359,427,0.1025559381,
426,0.0117790848,426,0.000904802233,426,0.001011584187,426,0.001595561625,426,0.1053458452,
425,0.01184920128,425,0.0007273572846,425,0.000943636056,425,0.001794441603,425,0.1081308126,
424,0.01180618815,424,0.0008892904152,424,0.001042850665,424,0.001749891671,424,0.1107385978,
423,0.01175669022,423,0.000998066389,423,0.0007467788528,423,0.001606525853,423,0.1131343022,
422,0.01171919052,422,0.0009624446393,422,0.0007201749249,422,0.001648410689,422,0.1151909903,
421,0.0115636168,421,0.0004775997659,421,0.0005685949582,421,0.001746252994,421,0.1170829684,
420,0.01159995981,420,0.0008658161969,420,0.0004170419124,420,0.001735753031,420,0.1183807477,
419,0.01143783797,419,0.0007360437303,419,0.0004897019826,419,0.001659532078,419,0.1194424555,
418,0.0115845399,418,0.0005477039958,418,0.0002738822368,418,0.001587247709,418,0.1206932366,
417,0.01140825823,417,0.000300458807,417,7.041553908E-5,417,0.001566905179,417,0.1219605207,
416,0.0113321282,416,0.0002594289836,416,9.428693011E-5,416,0.001672265003,416,0.1224234626,
415,0.01108782925,415,0.0002748924308,415,-2.697234049E-5,415,0.001632794272,415,0.1230430603,
414,0.0111515671,414,0.0002159167489,414,-0.0001773862023,414,0.001729515614,414,0.1238188371,
413,0.01081227232,413,0.0001582697587,413,-0.0003044675395,413,0.001790620619,413,0.1248307228,
412,0.01092611067,412,-0.0001549257722,412,-0.0005156528787,412,0.001695081126,412,0.1256891489,
411,0.01078111771,411,-6.931708776E-5,411,-0.0005985886091,411,0.001662026742,411,0.1263543516,
410,0.01060765516,410,-0.000148767067,410,-0.0006369487965,410,0.001571945264,410,0.1270021498,
409,0.01052418631,409,-0.0003338006791,409,-0.0007891153218,409,0.001575946226,409,0.1279924959,
408,0.01044213865,408,-0.0003046744969,408,-0.001020054333,408,0.001440117601,408,0.129418388,
407,0.01038574241,407,-0.0004888143158,407,-0.001118592336,407,0.00158927415,407,0.1305010319,
406,0.01024328824,406,-0.0009412802174,406,-0.001299496857,406,0.001760469866,406,0.1315683275,
405,0.01023173239,405,-0.0007069912972,405,-0.001559054013,405,0.0018827233,405,0.1328350306,
404,0.009855736978,404,-0.0008486442384,404,-0.001591191161,404,0.001608838211,404,0.1335104406,
403,0.009857458062,403,-0.001194649492,403,-0.001740858075,403,0.001776818652,403,0.1345086545,
402,0.009772200137,402,-0.001249941415,402,-0.001833407092,402,0.001627779566,402,0.1354179829,
401,0.009531079791,401,-0.001249838155,401,-0.002068583621,401,0.001699888846,401,0.1357885599,
400,0.009646938182,400,-0.001521084807,400,-0.002134428825,400,0.001585117308,400,0.1359517276,
399,0.009336692281,399,-0.001535529969,399,-0.002319596941,399,0.001709790202,399,0.1359267235,
398,0.009381154552,398,-0.001490593422,398,-0.002418252407,398,0.001589222229,398,0.1355801672,
397,0.009147997014,397,-0.001769063179,397,-0.002539738547,397,0.001414925558,397,0.1344407052,
396,0.009004415013,396,-0.001811702386,396,-0.002757145325,396,0.001441468135,396,0.1337267011,
395,0.008797557093,395,-0.002172705019,395,-0.002950738417,395,0.001788073336,395,0.1321603358,
394,0.008643475361,394,-0.002217262052,394,-0.003296512412,394,0.001918628579,394,0.1307641417,
393,0.008463791572,393,-0.00226032082,393,-0.003416314954,393,0.001817628159,393,0.1285950691,
392,0.00838020537,392,-0.002334942343,392,-0.003263267921,392,0.00141035486,392,0.1262861043,
391,0.008302677423,391,-0.00257293554,391,-0.003567973152,391,0.001622842741,391,0.1238064766,
390,0.008237773553,390,-0.002708424814,390,-0.003861483652,390,0.001704098773,390,0.1215843409,
389,0.007958771661,389,-0.002895405516,389,-0.003779220162,389,0.001386618707,389,0.1187776774,
388,0.007881186903,388,-0.003064724617,388,-0.00408069184,388,0.001624765457,388,0.1164190844,
387,0.008004516363,387,-0.003223443171,387,-0.004459440242,387,0.002053124364,387,0.1142115295,
386,0.007647041231,386,-0.003224830609,386,-0.004354071803,386,0.001390124555,386,0.111586459,
385,0.00773204118,385,-0.003476460697,385,-0.00459383009,385,0.001694769366,385,0.1094959602,
384,0.007627782878,384,-0.003403011011,384,-0.004814870656,384,0.001911244472,384,0.1074283794,
383,0.007428478915,383,-0.003435011953,383,-0.004874003585,383,0.001865824685,383,0.1057768688,
382,0.007265458349,382,-0.003727688454,382,-0.004973104224,382,0.001578803989,382,0.1042882875,
381,0.007058690302,381,-0.003904123325,381,-0.00515660597,381,0.001900636591,381,0.1033366621,
380,0.007171733305,380,-0.003801340004,380,-0.005412130151,380,0.001765902038,380,0.1030664071,
379,0.007261141669,379,-0.003869232023,379,-0.005212776829,379,0.001420145622,379,0.1023410782,
378,0.007195893209,378,-0.004190074746,378,-0.00519916974,378,0.001331698266,378,0.1025523022,
377,0.006826118566,377,-0.003867744002,377,-0.005455538165,377,0.001500013052,377,0.1031934395,
376,0.007037327159,376,-0.0039752312,376,-0.005625548773,376,0.00169822562,376,0.1048613638,
375,0.006942625623,375,-0.003741649911,375,-0.005724682473,375,0.001670134137,375,0.1071237326,
374,0.007066320628,374,-0.003801134648,374,-0.005461110733,374,0.001572438865,374,0.1095487252,
373,0.006866274402,373,-0.004050225485,373,-0.005721412599,373,0.001718990039,373,0.1136215851,
372,0.006848181598,372,-0.004280103836,372,-0.005864401814,372,0.00173195859,372,0.118898049,
371,0.006958223879,371,-0.003982669674,371,-0.005904649384,371,0.001778144157,371,0.1245764494,
370,0.006934629753,370,-0.004167410545,370,-0.005584611092,370,0.001645162585,370,0.1317326874,
369,0.006969823968,369,-0.003848860506,369,-0.00568722887,369,0.001383658266,369,0.1403512061,
368,0.007263984531,368,-0.003872310743,368,-0.005807395559,368,0.001558773685,368,0.150545612,
367,0.007160075475,367,-0.003930597566,367,-0.005970936734,367,0.001771672163,367,0.162080422,
366,0.007339641917,366,-0.003859071992,366,-0.005883453414,366,0.001673460356,366,0.1748369485,
365,0.007108603604,365,-0.003799902974,365,-0.00583232427,365,0.00160286238,365,0.1890521049,
364,0.007305918261,364,-0.003652740968,364,-0.005826858338,364,0.00158867659,364,0.2039318234,
363,0.007249086164,363,-0.003528124886,363,-0.005768365692,363,0.001607720973,363,0.2199162096,
362,0.007490285672,362,-0.00352021656,362,-0.005655087065,362,0.001439494314,362,0.2362937033,
361,0.007485123817,361,-0.003542041406,361,-0.005784866866,361,0.001528275432,361,0.2527795136,
360,0.007558475714,360,-0.003658234142,360,-0.006064784247,360,0.001734765479,360,0.2696650028,
359,0.007624174003,359,-0.003435936524,359,-0.005696886685,359,0.001396019477,359,0.284694612,
358,0.007733912207,358,-0.003230997361,358,-0.005713799503,358,0.001743939822,358,0.298668623,
357,0.007699709851,357,-0.003254069947,357,-0.006256296299,357,0.002369140275,357,0.311442107,
356,0.007956319489,356,-0.003326106351,356,-0.005984111223,356,0.001529574278,356,0.3204603791,
355,0.007727904245,355,-0.003244460793,355,-0.005930593703,355,0.001684582443,355,0.3269502521,
354,0.007486835588,354,-0.003408250399,354,-0.005900359247,354,0.001392617589,354,0.3298000395,
353,0.007711619604,353,-0.0031851565,353,-0.006075148005,353,0.001739443629,353,0.3294228017,
352,0.007345539518,352,-0.003044469515,352,-0.00622276729,352,0.001637315494,352,0.3246921599,
351,0.007703372277,351,-0.003092946718,351,-0.006437930278,351,0.00163835485,351,0.3173444271,
350,0.007422264665,350,-0.003463826142,350,-0.006374928169,350,0.001798886457,350,0.3065344393,
349,0.009712635539,349,-0.001112292288,349,-0.003412513761,349,0.002127853688,349,0.2928749323,
348,0.009989667684,348,-0.001462886343,348,-0.003449496347,348,0.001150055905,348,0.2783734798,
347,0.009623065591,347,-0.001361794421,347,-0.003518830054,347,0.001570464461,347,0.2654277384,
346,0.009961750358,346,-0.0009446897893,346,-0.003816222772,346,0.001364260213,346,0.2523579597,
345,0.009897313081,345,-0.00155693898,345,-0.004075973295,345,0.002111439826,345,0.2408608347,
344,0.009966756217,344,-0.001837222022,344,-0.004207507707,344,0.002085220302,344,0.2309377342,
343,0.00935036689,343,-0.001464898582,343,-0.004303069785,343,0.00128374272,343,0.2216047794,
342,0.009350895882,342,-0.001862843405,342,-0.003968921024,342,0.001261026016,342,0.2136265934,
341,0.00957119558,341,-0.00142944965,341,-0.004058534745,341,0.0006646905676,341,0.2063675523,
340,0.009585882537,340,-0.001284682425,340,-0.004304658622,340,0.001369116129,340,0.2004657686,
339,0.009736116044,339,-0.0002967588662,339,-0.004120642785,339,0.002146193292,339,0.1942063123,
338,0.01013307273,338,-0.000996914343,338,-0.003737748833,338,0.001887195045,338,0.187076658,
337,0.01074208412,337,-0.0007848259993,337,-0.003694477025,337,0.00174669479,337,0.1799182296,
336,0.01073038206,336,-0.0006681203959,336,-0.003881598124,336,0.001850876375,336,0.1735057235,
335,0.01009706501,335,-0.0006925184862,335,-0.003714701859,335,0.001760599785,335,0.1658406407,
334,0.01037500519,334,-0.00018525224,334,-0.003865896724,334,0.001487077447,334,0.1589641124,
333,0.01042633504,333,-0.0001967405551,333,-0.003606636776,333,0.001254146337,333,0.1527633667,
332,0.010705919,332,-0.0004862803034,332,-0.003927929793,332,0.002276570071,332,0.147507742,
331,0.01058160793,331,0.0002138448472,331,-0.003405476455,331,0.001430352335,331,0.1431821287,
330,0.0107096862,330,-0.0004014610604,330,-0.003444514237,330,0.001345979515,330,0.141076684,
329,0.01085760258,329,5.169735596E-5,329,-0.003627070924,329,0.001748566166,329,0.140706569,
328,0.01087350119,328,0.0001983317925,328,-0.003807447152,328,0.001914728549,328,0.1433140785,
327,0.011410092,327,-0.000187994985,327,-0.003434960498,327,0.001772010117,327,0.1466691792,
326,0.01146173105,326,0.0002921696287,326,-0.003278528806,326,0.001914598513,326,0.1527986974,
325,0.01136924792,325,0.0004216022498,325,-0.00299228495,325,0.001398512628,325,0.1619731337,
324,0.01172012184,324,0.0008272227715,324,-0.002799224574,324,0.001265776926,324,0.1737567335,
323,0.01213319041,323,0.001529080677,323,-0.002982155653,323,0.001716287225,323,0.1877922863,
322,0.01199537702,322,0.001237298129,322,-0.002662477316,322,0.001540380879,322,0.2042040229,
321,0.01255150232,321,0.001203240128,321,-0.002425974933,321,0.001171988086,321,0.2226799428,
320,0.01237996854,320,0.001470220159,320,-0.002188725397,320,0.001200488652,320,0.2447073311,
319,0.01294877473,319,0.001744303736,319,-0.002483581193,319,0.001819811645,319,0.2686189711,
318,0.0129499482,318,0.002051017713,318,-0.002414030489,318,0.001606136095,318,0.294388324,
317,0.01353197172,317,0.001731334836,317,-0.00209099683,317,0.001562540652,317,0.3222316504,
316,0.0126772048,316,0.002433198737,316,-0.002474727109,316,0.001523937215,316,0.3525104225,
315,0.01311159506,315,0.002320289379,315,-0.001930678263,315,0.001577037387,315,0.3816414773,
314,0.01352430787,314,0.002501823008,314,-0.00184980093,314,0.001314016175,314,0.4111950696,
313,0.01369661465,313,0.003191817319,313,-0.002261865884,313,0.001527340151,313,0.4404342771,
312,0.01397122815,312,0.002833746374,312,-0.002238482935,312,0.002032188,312,0.4678092599,
311,0.013862174,311,0.002993782284,311,-0.002126288833,311,0.001700018765,311,0.4905580878,
310,0.01391645707,310,0.002815091284,310,-0.002522495808,310,0.002269596327,310,0.5099938512,
309,0.01448096428,309,0.002747902414,309,-0.00189593737,309,0.001739703468,309,0.5252003074,
308,0.01406317018,308,0.003015625291,308,-0.002249556361,308,0.00145648024,308,0.5366134644,
307,0.01385741681,307,0.003100245027,307,-0.001932739979,307,0.001241893042,307,0.5440941453,
306,0.01434026379,306,0.002943297382,306,-0.002161938464,306,0.001248253277,306,0.549259901,
305,0.01400400326,305,0.002900792286,305,-0.00225414033,305,0.001453986857,305,0.5511306524,
304,0.01431348268,304,0.003425242379,304,-0.002088420559,304,0.001332269516,304,0.5526275635,
303,0.01425318513,303,0.003533794312,303,-0.002227615099,303,0.001331230858,303,0.5519906282,
302,0.01432418358,302,0.00343364384,302,-0.002381851198,302,0.001990057994,302,0.55168432,
301,0.0149677461,301,0.003627911909,301,-0.002228748053,301,0.001919590635,301,0.5503064394,
300,0.01520748157,300,0.00372787239,300,-0.001935059321,300,0.001473518903,300,0.5497144461,
299,0.01516429521,299,0.003882126184,299,-0.002210050821,299,0.001836734475,299,0.548278749,
298,0.01548085362,298,0.004522027913,298,-0.001500190003,298,0.001207107911,298,0.5477660894,
297,0.01541588735,297,0.004705165047,297,-0.001611359534,297,0.00155568216,297,0.5480854511,
296,0.01568509638,296,0.004726466257,296,-0.001257323427,296,0.001276914612,296,0.5488188267,
295,0.01596301049,295,0.005019267555,295,-0.001362568582,295,0.001593639026,295,0.55036062,
294,0.01605540328,294,0.005214613397,294,-0.00140829233,294,0.002007013652,294,0.5535057783,
293,0.01643357985,293,0.005427477416,293,-0.001096025575,293,0.001473051263,293,0.5571711063,
292,0.01648302376,292,0.005445406307,292,-0.001095147687,292,0.001570880064,292,0.5623168349,
291,0.01688315533,291,0.005868080072,291,-0.0009682974778,291,0.001683750888,291,0.5691957474,
290,0.01679903641,290,0.005992912687,290,-0.0008921489352,290,0.001496636309,290,0.5756164193,
289,0.01697054878,289,0.005907360464,289,-0.0006704465486,289,0.001840009936,289,0.5840607882,
288,0.01732393168,288,0.006375349127,288,-0.0004902622895,288,0.001579505508,288,0.591201663,
287,0.01786858402,287,0.006760015152,287,-0.0005112057552,287,0.001376257278,287,0.598462522,
286,0.01774719357,286,0.006804451346,286,-6.993825809E-5,286,0.00108909281,286,0.6043815017,
285,0.01802618988,285,0.006800585892,285,-0.0004020817578,285,0.001431988552,285,0.6098287702,
284,0.01842747815,284,0.006935944781,284,0.0003711044264,284,0.001038724906,284,0.6112174392,
283,0.01837735437,283,0.007540406659,283,-0.0001556503121,283,0.001683932845,283,0.6125447154,
282,0.01880388893,282,0.007328295149,282,0.0001867815299,282,0.001373608597,282,0.610512495,
281,0.01884770952,281,0.00747461617,281,0.0001659089758,281,0.001694457489,281,0.6067918539,
280,0.01870658621,280,0.008161959238,280,0.0004981504171,280,0.001456636121,280,0.6016314626,
279,0.0193030946,279,0.008338325657,279,0.0005314274458,279,0.00147676561,279,0.5957947373,
278,0.01940832473,278,0.008237087168,278,0.0007339434233,278,0.001552772592,278,0.5898621678,
277,0.01951260865,277,0.008393849246,277,0.001229406451,277,0.001203915104,277,0.5843963027,
276,0.01990332082,276,0.008756245486,276,0.0007422410417,276,0.002000980312,276,0.5828003883,
275,0.01996435411,275,0.008972913958,275,0.001421599998,275,0.001377296052,275,0.5827003717,
274,0.02045040578,274,0.00964521803,274,0.001789346919,274,0.001234987751,274,0.5869145393,
273,0.02075799741,273,0.009877901524,273,0.001917484566,273,0.001579505508,273,0.5980300903,
272,0.02130414918,272,0.01009626966,272,0.002178634284,272,0.001597432303,272,0.615052104,
271,0.02166975662,271,0.0103963213,271,0.002534004161,271,0.001702903421,271,0.6414965391,
270,0.02226269431,270,0.01112267189,270,0.003242826788,270,0.001364623778,270,0.6765446067,
269,0.02265234478,269,0.01161689591,269,0.003613894805,269,0.001303708414,269,0.7202746272,
268,0.02300290391,268,0.01206073817,268,0.00382605358,268,0.00125822227,268,0.7722206712,
267,0.02356101573,267,0.01278598793,267,0.004317947663,267,0.001599484822,267,0.8288874626,
266,0.02405863628,266,0.01299147401,266,0.004406063817,266,0.001549291424,266,0.8892588615,
265,0.02432975359,265,0.01351709757,265,0.005003869999,265,0.001432352117,265,0.9482548237,
264,0.02490303293,264,0.01361356396,264,0.005340620875,264,0.001431936515,264,0.9998170733,
263,0.02567176335,263,0.01426115632,263,0.005737748928,263,0.001246020664,263,1.044127226,
262,0.02566456795,262,0.0145698553,262,0.006107857451,262,0.001077129622,262,1.076851487,
261,0.02621877007,261,0.01512274891,261,0.006330930628,261,0.001253159833,261,1.099647641,
260,0.02628691308,260,0.01494869683,260,0.006065803114,260,0.001783264684,260,1.113454461,
259,0.02667768858,259,0.0155853238,259,0.006282656454,259,0.001840477926,259,1.11865139,
258,0.02686801739,258,0.01570189744,258,0.006536038592,258,0.00145559723,258,1.117978096,
257,0.02711951174,257,0.01580365561,257,0.006770689972,257,0.001136144507,257,1.113268375,
256,0.02742397971,256,0.01646898873,256,0.006294527557,256,0.001831691363,256,1.104709744,
255,0.02740842849,255,0.01657366939,255,0.006338443141,255,0.001605200698,255,1.091264248,
254,0.02736935951,254,0.01680401526,254,0.006245390512,254,0.001627701567,254,1.073621392,
253,0.02733208798,253,0.01663816348,253,0.00607929565,253,0.001722394605,253,1.050125837,
252,0.02739172056,252,0.01637696475,252,0.005987637211,252,0.001152391895,252,1.020627737,
251,0.02734325267,251,0.01620759629,251,0.005123110954,251,0.001744745532,251,0.9874011278,
250,0.02709228918,250,0.01595122181,250,0.004913459532,250,0.00162325846,250,0.9512460828,
249,0.026701333,249,0.01566424407,249,0.004351204727,249,0.00158020691,249,0.9158008099,
248,0.02657654136,248,0.01510103885,248,0.003993431106,248,0.001571737463,248,0.8844477534,
247,0.0263963826,247,0.01533425041,247,0.003544155043,247,0.001574751106,247,0.8569071889,
246,0.02611489967,246,0.01482137013,246,0.003161699744,246,0.001269567409,246,0.8374953866,
245,0.02565553226,245,0.01443343423,245,0.002182380529,245,0.001299372525,245,0.8271317482,
244,0.02539151907,244,0.0141539285,244,0.001982828835,244,0.001405134797,244,0.8253147602,
243,0.02520740405,243,0.01416457258,243,0.001372829545,243,0.001283483114,243,0.8334605098,
242,0.02510276064,242,0.01439615805,242,0.0008554413216,242,0.001314120018,242,0.8530431986,
241,0.02503414638,241,0.01402114052,241,0.0003915723064,241,0.001342214411,241,0.880346179,
240,0.02507369034,240,0.01410568599,240,0.0001463580411,240,0.001523573534,240,0.9106997848,
239,0.02492200397,239,0.01392297912,239,-7.790977543E-5,239,0.0009687489364,239,0.9409758449,
238,0.02476335503,238,0.01385701634,238,-0.001080171322,238,0.001633340027,238,0.9656406641,
237,0.02457474172,237,0.01378486399,237,-0.001279210788,237,0.001199502265,237,0.9795965552,
236,0.02458367124,236,0.01378775015,236,-0.001779375365,236,0.001351770014,236,0.9892507792,
235,0.02458405495,235,0.01372399833,235,-0.002344108419,235,0.00159317127,235,0.9939202666,
234,0.0246889852,234,0.01363298297,234,-0.002926261164,234,0.001829065848,234,0.9975064993,
233,0.0253134463,233,0.01405343786,233,-0.003378096735,233,0.001931135077,233,1.001398802,
232,0.02480304055,232,0.01381658297,232,-0.003108470468,232,0.00130908296,232,1.008007407,
231,0.02546148002,231,0.01420747209,231,-0.003679898102,231,0.001886103069,231,1.017833114,
230,0.02570373006,230,0.01461932715,230,-0.003469886724,230,0.001068747719,230,1.028775334,
229,0.02582173236,229,0.0149626825,229,-0.003328675171,229,0.001072692103,229,1.04397285,
228,0.02652767114,228,0.01534264442,228,-0.003914385103,228,0.00146336318,228,1.06227994,
227,0.02684270963,227,0.01593731157,227,-0.003419294255,227,0.001158179832,227,1.081016779,
226,0.0277778618,226,0.0161805395,226,-0.003439634573,226,0.001616451074,226,1.100047112,
225,0.02871417254,225,0.01777491532,225,-0.002994033042,225,0.001465129317,225,1.115524411,
224,0.02940729819,224,0.01836125925,224,-0.002602218883,224,0.0007929375861,224,1.128759742,
223,0.03124157526,223,0.01966585591,223,-0.002017106162,223,0.0008642859175,223,1.14103055,
222,0.03253050894,222,0.02089552395,222,-0.001468716888,222,0.001145773451,222,1.153004527,
221,0.0338348113,221,0.02269131877,221,-0.0007613116759,221,0.001340085175,221,1.163775921,
220,0.03566294163,220,0.0246101357,220,3.929667946E-5,220,0.001043836703,220,1.179704905,
219,0.03779555485,219,0.02645764686,219,0.00101262203,219,0.0009900493314,219,1.195743561,
218,0.03996014595,218,0.02875532582,218,0.001751918928,218,0.001062286319,218,1.215494752,
217,0.04227685183,217,0.03069293126,217,0.002987057669,217,0.001513676485,217,1.240630746,
216,0.04446667805,216,0.03318879381,216,0.003696803469,216,0.001292751869,216,1.269185901,
215,0.04706036672,215,0.03629793599,215,0.004881389439,215,0.0007243235596,215,1.303451538,
214,0.05059257895,214,0.03929441795,214,0.005785044283,214,0.00094353233,214,1.340086699,
213,0.0530411154,213,0.04189648107,213,0.006174229085,213,0.002104390413,213,1.385499001,
212,0.05591009185,212,0.0450960733,212,0.008306661621,212,0.0003339538234,212,1.43531847,
211,0.05916179344,211,0.04847417027,211,0.008319458924,211,0.001283223508,211,1.491259813,
210,0.06234493107,210,0.05152188241,210,0.009660992771,210,0.00126551732,210,1.549220324,
209,0.06582068652,209,0.05440213531,209,0.01011831407,209,0.001178451232,209,1.609324694,
208,0.06905443221,208,0.05721107125,208,0.01118816715,208,0.0004869549884,208,1.678416729,
207,0.07165955752,207,0.06030570716,207,0.01180126704,207,0.0005479372921,207,1.747136116,
206,0.07420534641,206,0.06291868538,206,0.0113909319,206,0.000743278244,206,1.816606045,
205,0.0760532096,205,0.06679143012,205,0.01151077077,205,0.0008629371296,205,1.87931633,
204,0.07796364278,204,0.06747503579,204,0.01058508269,204,-0.0005859734374,204,1.942808151,
203,0.08093280345,203,0.06907825917,203,0.009223825298,203,0.00112083205,203,2.006435394,
202,0.08092460036,202,0.06978386641,202,0.008857894689,202,-0.0008466807194,202,2.053683281,
201,0.08329972625,201,0.07093700022,201,0.00608711876,201,-0.000581682194,201,2.115929842,
200,0.08527374268,200,0.07287050039,200,0.004242709838,200,-0.000754903187,200,2.179058552,

3,
3
Collection Time: 2018-1-5  03:06:44
Operator Name  :
Scan Software Version: 3.00(182)
Parameter List :
Instrument                        Cary 4000
Instrument Version                1.12
Start (nm)                        800.00
Stop (nm)                         200.00
X Mode                            Nanometers
Y Mode                            Abs
UV-Vis Scan Rate (nm/min)         600.000
UV-Vis Data Interval (nm)         1.000
UV-Vis Ave. Time (sec)            0.100
UV-Vis SBW (nm)                   2.000
Slit Height                       Full
Beam Mode                         Double
Signal-to-noise Mode              Off
UV Source                         On
Vis Source                        On
Third Source                      Off
Source Changeover (nm)            350.00
Baseline Correction               Off
Cycle Mode                        Off
Comments
Method Log     :
Method Name    : Default
Date/Time stamp: 2018-1-5  03:03:29
Method Modifications: None
<SBW (nm)> , 2.00
<Energy> , 724.44
<Current Wavelength> , 200.00

4,
4
Collection Time: 2018-1-5  03:09:43
Operator Name  :
Scan Software Version: 3.00(182)
Parameter List :
Instrument                        Cary 4000
Instrument Version                1.12
Start (nm)                        800.00
Stop (nm)                         200.00
X Mode                            Nanometers
Y Mode                            Abs
UV-Vis Scan Rate (nm/min)         600.000
UV-Vis Data Interval (nm)         1.000
UV-Vis Ave. Time (sec)            0.100
UV-Vis SBW (nm)                   2.000
Slit Height                       Full
Beam Mode                         Double
Signal-to-noise Mode              Off
UV Source                         On
Vis Source                        On
Third Source                      Off
Source Changeover (nm)            350.00
Baseline Correction               Off
Cycle Mode                        Off
Comments
Method Log     :
Method Name    : Default
Date/Time stamp: 2018-1-5  03:03:29
Method Modifications: None
<SBW (nm)> , 2.00
<Energy> , 724.44
<Current Wavelength> , 200.00

Baseline 100%T,
Baseline 100%T
Collection Time: 2018-1-5  03:15:10
Operator Name  :
Scan Software Version: 3.00(182)
Parameter List :
Instrument                        Cary 4000
Instrument Version                1.12
Start (nm)                        800.00
Stop (nm)                         200.00
X Mode                            Nanometers
Y Mode                            Abs
UV-Vis Scan Rate (nm/min)         600.000
UV-Vis Data Interval (nm)         1.000
UV-Vis Ave. Time (sec)            0.100
UV-Vis SBW (nm)                   2.000
Slit Height                       Full
Beam Mode                         Double
Signal-to-noise Mode              Off
UV Source                         On
Vis Source                        On
Third Source                      Off
Source Changeover (nm)            350.00
Baseline Correction               On
Baseline Type                     Baseline correction
Baseline File Name
Baseline Std Ref File Name
Cycle Mode                        Off
Comments
Method Log     :
Method Name    : Default
Date/Time stamp: 2018-1-5  03:03:29
Method Modifications:
Baseline Correction Changed: 2018-1-5  03:14:55, Old:0, New:1
Sipper Type Changed: 2018-1-5  03:14:55, Old:Internal RSA, New:External sipper
End Method Modifications
<SBW (nm)> , 2.000
<Energy> , 724.44
<Slit height> , Full
<Current Wavelength> , 200.00

blank,
blank
Collection Time: 2018-1-5  03:17:18
Operator Name  :
Scan Software Version: 3.00(182)
Parameter List :
Instrument                        Cary 4000
Instrument Version                1.12
Start (nm)                        800.00
Stop (nm)                         200.00
X Mode                            Nanometers
Y Mode                            Abs
UV-Vis Scan Rate (nm/min)         600.000
UV-Vis Data Interval (nm)         1.000
UV-Vis Ave. Time (sec)            0.100
UV-Vis SBW (nm)                   2.000
Slit Height                       Full
Beam Mode                         Double
Signal-to-noise Mode              Off
UV Source                         On
Vis Source                        On
Third Source                      Off
Source Changeover (nm)            350.00
Baseline Correction               On
Baseline Type                     Baseline correction
Baseline File Name
Baseline Std Ref File Name
Cycle Mode                        Off
Comments
Method Log     :
Method Name    : Default
Date/Time stamp: 2018-1-5  03:03:29
Method Modifications:
Baseline Correction Changed: 2018-1-5  03:14:55, Old:0, New:1
Sipper Type Changed: 2018-1-5  03:14:55, Old:Internal RSA, New:External sipper
End Method Modifications
<SBW (nm)> , 2.000
<Energy> , 724.44
<Slit height> , Full
<Current Wavelength> , 200.00

3,
3
Collection Time: 2018-1-5  03:21:13
Operator Name  :
Scan Software Version: 3.00(182)
Parameter List :
Instrument                        Cary 4000
Instrument Version                1.12
Start (nm)                        800.00
Stop (nm)                         200.00
X Mode                            Nanometers
Y Mode                            Abs
UV-Vis Scan Rate (nm/min)         600.000
UV-Vis Data Interval (nm)         1.000
UV-Vis Ave. Time (sec)            0.100
UV-Vis SBW (nm)                   2.000
Slit Height                       Full
Beam Mode                         Double
Signal-to-noise Mode              Off
UV Source                         On
Vis Source                        On
Third Source                      Off
Source Changeover (nm)            350.00
Baseline Correction               On
Baseline Type                     Baseline correction
Baseline File Name
Baseline Std Ref File Name
Cycle Mode                        Off
Comments
Method Log     :
Method Name    : Default
Date/Time stamp: 2018-1-5  03:03:29
Method Modifications:
Baseline Correction Changed: 2018-1-5  03:14:55, Old:0, New:1
Sipper Type Changed: 2018-1-5  03:14:55, Old:Internal RSA, New:External sipper
End Method Modifications
<SBW (nm)> , 2.000
<Energy> , 724.44
<Slit height> , Full
<Current Wavelength> , 199.00

