Baseline 100%T,,2-0,,2-1,,
Wavelength (nm),Abs,Wavelength (nm),Abs,Wavelength (nm),Abs,
800,0.01394147612,800,0.000343927677,800,-0.001682173344,
799,0.01397783123,799,0.000386701402,799,-0.001891968306,
798,0.01386896241,798,0.000488302554,798,-0.001572982175,
797,0.01389248203,797,0.0004923712695,797,-0.001526243868,
796,0.01399165206,796,0.0003420106077,796,-0.001684855088,
795,0.01388988923,795,0.0004011847777,795,-0.001523664338,
794,0.01406536251,794,0.00032271081,794,-0.001902741496,
793,0.01375611406,793,0.0006210340071,793,-0.001734412508,
792,0.01381821278,792,0.0005147886113,792,-0.001674643834,
791,0.01391600259,791,0.0004787140933,791,-0.001713888836,
790,0.01400857512,790,0.0003584614606,790,-0.001810929039,
789,0.01383627765,789,0.0003971428669,789,-0.001778756618,
788,0.01384095475,788,0.0004595377832,788,-0.001664122916,
787,0.01382107195,787,0.000464953715,787,-0.001751583419,
786,0.01372931525,786,0.0004274063685,786,-0.00165746978,
785,0.01369984727,785,0.0004965177504,785,-0.001659687492,
784,0.0137226088,784,0.000302893779,784,-0.001736011007,
783,0.01367908902,783,0.0003456116247,783,-0.001785614062,
782,0.01364113018,782,0.0002193354157,782,-0.001711826189,
781,0.01355277561,781,0.000381364167,781,-0.001638386748,
780,0.01361059956,780,0.0002766278922,780,-0.001853151829,
779,0.01349533442,779,0.0003126856172,779,-0.00173652661,
778,0.01337217074,778,0.0003697831125,778,-0.001679027453,
777,0.01324591972,777,0.0002846059215,777,-0.001563232508,
776,0.01313208509,776,0.0005462525878,776,-0.00165721192,
775,0.01329529472,775,0.0004039053165,775,-0.001702440553,
774,0.01311532967,774,0.0004480323987,774,-0.001668094075,
773,0.01314718649,773,0.0003312336921,773,-0.001751583419,
772,0.01286322717,772,0.000432821922,772,-0.00151303655,
771,0.01291218586,771,0.0004418911121,771,-0.001639160328,
770,0.01289042551,770,0.0003356376837,770,-0.001656489796,
769,0.01272326335,769,0.0003550417023,769,-0.001562613528,
768,0.01269450318,768,0.0005205162452,768,-0.001836706535,
767,0.01268034987,767,0.0005303129437,767,-0.001688155695,
766,0.0125324782,766,0.0004492243752,766,-0.001503956271,
765,0.01240202319,765,0.0003488758521,765,-0.001465672627,
764,0.0124211479,764,0.0004075845645,764,-0.001609657425,
763,0.0122522749,763,0.0003825559688,763,-0.001534962561,
762,0.01208549086,762,0.0005145294126,762,-0.001221805927,
761,0.01205499005,761,0.0004705511092,761,-0.001530629001,
760,0.01191493962,760,0.0004042162327,760,-0.001559518278,
759,0.01179225091,759,0.0004562727117,759,-0.001374903135,
758,0.0118202595,758,0.0003666223492,758,-0.001555339782,
757,0.01183824148,757,0.0001753869583,757,-0.001622964861,
756,0.01170935109,756,0.0003763897112,756,-0.00143228774,
755,0.01154179219,755,0.0004369159869,755,-0.001436209423,
754,0.01143167168,754,0.0004588121956,754,-0.001562407124,
753,0.01131002232,753,0.0005703056813,753,-0.00146923284,
752,0.01132806297,752,0.0003011841036,752,-0.001476817532,
751,0.01123592723,751,0.000329187169,751,-0.001449367497,
750,0.01118274871,750,0.0004482915101,750,-0.001493482734,
749,0.01105986815,749,0.0002894497884,749,-0.001400293666,
748,0.01079324447,748,0.0003669850703,748,-0.001240700833,
747,0.01073271688,747,0.0005230042734,747,-0.001319007715,
746,0.01065877452,746,0.0005496997619,746,-0.00130403915,
745,0.01069785375,745,0.0002498455578,745,-0.00132313685,
744,0.01048615668,744,0.0004230014456,744,-0.001341459574,
743,0.01026798971,743,0.0005486370646,743,-0.001213235781,
742,0.01029624604,742,0.0003520883038,742,-0.001346259494,
741,0.0101095438,741,0.0004800616589,741,-0.001273635775,
740,0.0100595234,740,0.0003639797796,740,-0.001108780853,
739,0.009969192557,739,0.0004216540838,739,-0.001280501252,
738,0.009964822792,738,0.0002119542478,738,-0.001395907137,
737,0.00977614522,737,0.0005059770192,737,-0.001269867527,
736,0.009625077248,736,0.0003637206974,736,-0.001186853391,
735,0.009583818726,735,0.0004247634206,735,-0.001410046942,
734,0.009481178597,734,0.0003993192804,734,-0.001349252998,
733,0.009493586607,733,0.0003212601296,733,-0.001516544726,
732,0.009414405562,732,0.0002923509746,732,-0.001426663133,
731,0.009136629291,731,0.0004990056623,731,-0.001240132959,
730,0.009082782082,730,0.000367814122,730,-0.001332324115,
729,0.009086614475,729,0.0003949146194,729,-0.001536974451,
728,0.008912824094,728,0.0004298420681,728,-0.001436570659,
727,0.008911292069,727,0.0003682286479,727,-0.001408601995,
726,0.008729832247,726,0.0003936709836,726,-0.001402977039,
725,0.008655173704,725,0.0004990056623,725,-0.001432236168,
724,0.008704267442,724,0.0001626202138,724,-0.001547498512,
723,0.008411373012,723,0.0003831259673,723,-0.001391107799,
722,0.008409103379,722,0.0004221204726,722,-0.00154058577,
721,0.008352469653,721,0.0004038016777,721,-0.001641532872,
720,0.008081806824,720,0.0006111834082,720,-0.001352298073,
719,0.00818187464,719,0.0003694204206,719,-0.001455868944,
718,0.008050424978,718,0.0003984901705,718,-0.001439047512,
717,0.007940263487,717,0.0004772110551,717,-0.001636890927,
716,0.007876257412,716,0.0005160844303,716,-0.001579017495,
715,0.007765060291,715,0.0004656274687,715,-0.001429036842,
714,0.007719129324,714,0.0004472031724,714,-0.001433784142,
713,0.007699235808,713,0.000349238544,713,-0.001622655429,
712,0.007702871691,712,0.0002662411134,712,-0.001630289014,
711,0.007412706036,711,0.0004778848379,711,-0.001509992639,
710,0.007436510641,710,0.0004354649282,710,-0.001570763998,
709,0.007382425945,709,0.000465938414,709,-0.001505607273,
708,0.00724555878,708,0.0005883204285,708,-0.001467581722,
707,0.007215579972,707,0.0003746279399,707,-0.001514739008,
706,0.007127549499,706,0.0003895254922,706,-0.001462421962,
705,0.007135628257,705,0.0003639279457,705,-0.001646381104,
704,0.007005705032,704,0.0005180541193,704,-0.001548375469,
703,0.006879265886,703,0.0006008404889,703,-0.00146753015,
702,0.006836347748,702,0.0004612480698,702,-0.001382024959,
701,0.006859936751,701,0.0003407671175,701,-0.001667836215,
700,0.00677376613,700,0.0005319198826,700,-0.001603725599,
699,0.00664424058,699,0.0005622446188,699,-0.001444775146,
698,0.006632202305,698,0.0005041369586,698,-0.001511746668,
697,0.006674285512,697,0.0003378656111,697,-0.001726522809,
696,0.006567416247,696,0.0004689962661,696,-0.001550387475,
695,0.006417091936,695,0.0004830677644,695,-0.001516132033,
694,0.00644483557,694,0.0005370774888,694,-0.001545589766,
693,0.006361689419,693,0.0004593304766,693,-0.001479500555,
692,0.00636318652,692,0.0003952773695,692,-0.001696458552,
691,0.006274961401,691,0.000444326899,691,-0.001530680573,
690,0.006320004351,690,0.0003203793312,690,-0.001662008348,
689,0.006155246403,689,0.0005114194355,689,-0.001562974649,
688,0.006104864646,688,0.0004951183219,688,-0.001531093265,
687,0.006118069869,687,0.0005090869963,687,-0.001581957797,
686,0.006067351904,686,0.0004117820645,686,-0.001528565423,
685,0.006022518966,685,0.000371078524,685,-0.001576438313,
684,0.005949793383,684,0.0005694762222,684,-0.001541926991,
683,0.005883010104,683,0.0005018045194,683,-0.001531041693,
682,0.005910089239,682,0.0004352576216,682,-0.001602848759,
681,0.005804221146,681,0.000574193662,681,-0.001558073913,
680,0.005873118062,680,0.0004380561295,680,-0.001576025621,
679,0.005895290058,679,0.0003023238969,679,-0.001733432757,
678,0.00575991394,678,0.000513078121,678,-0.001661337912,
677,0.005743099842,677,0.0004167568986,677,-0.001532176742,
676,0.005681619514,676,0.0003889036598,676,-0.001571589382,
675,0.005661399104,675,0.0004740754084,675,-0.001589488937,
674,0.005551685113,674,0.0005776151665,674,-0.001548014465,
673,0.005615847651,673,0.0004127148422,673,-0.001645607408,
672,0.0055545168,672,0.0004450006236,672,-0.001648134668,
671,0.005581497215,671,0.0003971428669,671,-0.001680265181,
670,0.005437726155,670,0.0004411655827,670,-0.00155219296,
669,0.005388607271,669,0.0005211382522,669,-0.001541823847,
668,0.005404018797,668,0.0003991120029,668,-0.001550439047,
667,0.005370418541,667,0.0004995239433,667,-0.001582628349,
666,0.005329116713,666,0.0005677136942,666,-0.001654736348,
665,0.005294841249,665,0.0005592898233,665,-0.001580255572,
664,0.005367378239,664,0.0002915738733,664,-0.001654581632,
663,0.005320338067,663,0.0003482541069,663,-0.001634569955,
662,0.005358258262,662,0.0002827927237,662,-0.001690166886,
661,0.005200544838,661,0.0004485506506,661,-0.001634415239,
660,0.005203793291,660,0.0004397144949,660,-0.001664122916,
659,0.005174635909,659,0.0005008715671,659,-0.001639418188,
658,0.005167327356,658,0.0005322308862,658,-0.001677428721,
657,0.005220062565,657,0.000497295172,657,-0.001715693739,
656,0.005146816373,656,0.000454666093,656,-0.001661234768,
655,0.005169423297,655,0.0004177156079,655,-0.001700945082,
654,0.005073399283,654,0.0005608449574,654,-0.001552760485,
653,0.005223599728,653,0.0004050453717,653,-0.001588405692,
652,0.005274822004,652,0.0003810532507,652,-0.001655870932,
651,0.005214927718,651,0.0004645909066,651,-0.001552038244,
650,0.005287818611,650,0.0004476696195,650,-0.001752717886,
649,0.005220115185,649,0.0005402395036,649,-0.001554978662,
648,0.005245974287,648,0.0005676618312,648,-0.001607955201,
647,0.005314834882,647,0.000411989342,647,-0.001716157887,
646,0.0054905992,646,0.000372581213,646,-0.0017402909,
645,0.005487217568,645,0.0003516219731,645,-0.001750036492,
644,0.00553286029,644,0.0004280282592,644,-0.00177592074,
643,0.005526200868,643,0.000374213414,643,-0.001676551998,
642,0.005581575911,642,0.0004738162679,642,-0.001618993352,
641,0.005600350443,641,0.0005050699692,641,-0.001595214591,
640,0.005695205647,640,0.0004178710806,640,-0.00163957302,
639,0.005814505275,639,0.0004456743482,639,-0.001754161669,
638,0.00578593649,638,0.0005884759594,638,-0.001629360602,
637,0.005824317224,637,0.0004612998746,637,-0.001481873915,
636,0.006001941394,636,0.0004453634028,636,-0.001764422632,
635,0.00596202258,635,0.0004627251183,635,-0.001542339684,
634,0.006119540427,634,0.0005640590098,634,-0.001662524068,
633,0.006297101267,633,0.0004077400372,633,-0.001790254377,
632,0.006385410205,632,0.0003996820014,632,-0.001681245049,
631,0.006381049287,631,0.0004701883008,631,-0.001642719144,
630,0.006465512794,630,0.0005823067622,630,-0.001567772008,
629,0.006481145974,629,0.0004865921801,629,-0.001543010352,
628,0.00652694609,628,0.000485555589,628,-0.00155430811,
627,0.006732856389,627,0.0005297427997,627,-0.001529958332,
626,0.006788385101,626,0.0005784964305,626,-0.001445910311,
625,0.006903488189,625,0.0005093979416,625,-0.001554153278,
624,0.006985685788,624,0.0005466154544,624,-0.001512778574,
623,0.007132312283,623,0.000415357732,623,-0.00157117669,
622,0.007354174741,622,0.0003105096112,622,-0.001625543809,
621,0.007350726053,621,0.0004777293361,621,-0.001353639993,
620,0.007370340638,620,0.0005709795514,620,-0.001367677818,
619,0.007483096328,619,0.0004962585517,619,-0.001258459175,
618,0.007805224042,618,0.0003251977032,618,-0.001356323715,
617,0.007677050307,617,0.0006561093032,617,-0.001087762881,
616,0.008019177243,616,0.0004598487285,616,-0.001171312295,
615,0.008145763539,615,0.0004745937185,615,-0.001018349896,
614,0.008283389732,614,0.0004065999819,614,-0.0008732905262,
613,0.008524478413,613,0.0004704474413,613,-0.0008137132972,
612,0.008645719849,612,0.0005027893349,612,-0.0007893737056,
611,0.008909415454,611,0.0005121969152,611,-0.0006203023368,
610,0.00921539031,610,0.0003842141305,610,-0.0004658527905,
609,0.009315402247,609,0.0005300019402,609,-0.0001447819668,
608,0.009587126784,608,0.0005239890888,608,5.061001866E-5,
607,0.009769394062,607,0.0006001665024,607,0.0002838806249,
606,0.01002368052,606,0.0005033076741,606,0.0007112295716,
605,0.01029701438,605,0.0005665213685,605,0.0008798746276,
604,0.01050174981,604,0.0005114712985,604,0.001265828847,
603,0.01078722067,603,0.0004652646603,603,0.001791790361,
602,0.010930066,602,0.0004461407661,602,0.00243038754,
601,0.01114474144,601,0.0005680246977,601,0.0029831219,
600,0.01146367099,600,0.0004909199779,600,0.003793280572,
599,0.01157624461,599,0.0004569982702,599,0.004763392732,
598,0.0117508648,598,0.0005124561139,598,0.005834286567,
597,0.01197853312,597,0.0005040851538,597,0.006990684196,
596,0.01222109608,596,0.0004871104902,596,0.008508085273,
595,0.0123520568,595,0.0004534222535,595,0.01032792311,
594,0.01247847453,594,0.0005207753857,594,0.01236875542,
593,0.01278129593,593,0.0004429794499,593,0.01451942511,
592,0.01286712009,592,0.0004775220295,592,0.01737016067,
591,0.01287893299,591,0.0006609314005,591,0.02085301839,
590,0.01319374889,590,0.0005606376217,590,0.02438319661,
589,0.01342788804,589,0.0005255441647,589,0.02870521136,
588,0.01356602274,588,0.0004811500548,588,0.03395384178,
587,0.01379108988,587,0.000490634935,587,0.03981074691,
586,0.01394904125,586,0.0004661975545,586,0.04676364735,
585,0.01397216413,585,0.0006796758389,585,0.05467917025,
584,0.01411787979,584,0.0006034326507,584,0.06383533776,
583,0.01427073311,583,0.0005880612298,583,0.07448492199,
582,0.01450807601,582,0.0005556610995,582,0.08628316969,
581,0.01454680786,581,0.0005494664656,581,0.1001084819,
580,0.01472040359,580,0.0006711720489,580,0.1158241332,
579,0.0149859665,579,0.0005658993032,579,0.1332054734,
578,0.01506040897,578,0.0006498095463,578,0.1532898992,
577,0.0151355071,577,0.0006920429878,577,0.1754297912,
576,0.01532148663,576,0.0006604646915,576,0.1999843121,
575,0.01550883334,575,0.0005234707496,575,0.227246359,
574,0.01552012749,574,0.000589875679,574,0.2574364245,
573,0.01570417732,573,0.0004879397748,573,0.289676249,
572,0.01573308557,572,0.0005479631945,572,0.3253020346,
571,0.01577493176,571,0.0007519390201,571,0.3630138338,
570,0.0159842819,570,0.0006809203187,570,0.403526634,
569,0.01558502857,569,0.0006322588306,569,0.4451821446,
568,0.01577656902,568,0.0006361473934,568,0.4891777635,
567,0.01561314892,567,0.0008508763858,567,0.53469491,
566,0.01565849967,566,0.0006947393995,566,0.581017971,
565,0.01574180834,565,0.0006374436198,565,0.6266217232,
564,0.01574317738,564,0.0008115581004,564,0.6720103621,
563,0.01571531594,563,0.0008048411692,563,0.7159701586,
562,0.01572044194,562,0.0006855612155,562,0.7576126456,
561,0.01565270312,561,0.0008520435658,561,0.7967377305,
560,0.01565482281,560,0.000891495205,560,0.8320895433,
559,0.01564231887,559,0.0008020143723,559,0.8633029461,
558,0.01556020975,558,0.0009125583456,558,0.8903781176,
557,0.01547602471,557,0.0009731075261,557,0.9116422534,
556,0.0154586155,556,0.0007910963614,556,0.9279064536,
555,0.01548377704,555,0.0007233123761,555,0.9383817911,
554,0.0153945107,554,0.0008563231677,554,0.9435271025,
553,0.01525249518,553,0.0009021823062,553,0.9428422451,
552,0.01513829455,552,0.0008686174988,552,0.9374533892,
551,0.01509337313,551,0.0009395112866,551,0.9268514514,
550,0.01509597246,550,0.0008345884271,550,0.9115883708,
549,0.01508946065,549,0.0009020526195,549,0.8926475644,
548,0.01502790209,548,0.000808757206,548,0.8702400923,
547,0.01486042421,547,0.0009218450869,547,0.8451110721,
546,0.01485546865,546,0.000813866267,546,0.8174622059,
545,0.01477431227,545,0.0008865149575,545,0.7882499695,
544,0.01458832622,544,0.0009342191042,544,0.7578383684,
543,0.01459301077,543,0.0007936637267,543,0.7269517779,
542,0.01455952227,542,0.0007889957633,542,0.6952940822,
541,0.01443758234,541,0.0007287834305,541,0.6647976041,
540,0.01431658585,540,0.0009949010564,540,0.6341993809,
539,0.01431120839,539,0.0007669532206,539,0.6045130491,
538,0.01424344815,538,0.0007293020026,538,0.5767096281,
537,0.01424847636,537,0.0007852095878,537,0.5499825478,
536,0.01402461622,536,0.0009204961825,536,0.5248388052,
535,0.01413215976,535,0.0007583958795,535,0.5012002587,
534,0.01396807376,534,0.001055279979,534,0.4800419211,
533,0.0139155481,533,0.0008382453816,533,0.4605553746,
532,0.01414189395,532,0.0006727794535,532,0.442612499,
531,0.01399397757,531,0.0007924967213,531,0.4267444015,
530,0.01409410685,530,0.0007357325521,530,0.4130135179,
529,0.01390426885,529,0.0009219488711,529,0.4009354413,
528,0.01389042381,528,0.0008953861543,528,0.3902337551,
527,0.01378948707,527,0.0008797190385,527,0.3813692033,
526,0.01387839671,526,0.0008095093071,526,0.3734315932,
525,0.01377174444,525,0.0008547150646,525,0.3668682575,
524,0.01377444342,524,0.0008772030124,524,0.3610767722,
523,0.01384111494,523,0.0007558027282,523,0.3558049202,
522,0.01374841854,522,0.0006934430567,522,0.3512680531,
521,0.0137824323,521,0.000577200437,521,0.3468328714,
520,0.01366290078,520,0.0008562713047,520,0.3426953852,
519,0.01368688978,519,0.0008269374375,519,0.3382271826,
518,0.01360758115,518,0.0009258659557,518,0.3335258365,
517,0.01366047002,517,0.0007338655996,517,0.328286916,
516,0.01363413129,516,0.0006584944203,516,0.3225804567,
515,0.01357643865,515,0.0007280055434,515,0.3162613213,
514,0.01346716378,514,0.0009202108486,514,0.3094903231,
513,0.01358063146,513,0.0008010807214,513,0.3016507626,
512,0.01345154364,512,0.0008502798737,512,0.2932104766,
511,0.01342692692,511,0.0007956605987,511,0.2843448818,
510,0.01359863393,510,0.0006164715742,510,0.2746623755,
509,0.01351333223,509,0.0008074864163,509,0.2644266784,
508,0.01331854332,508,0.0009332333575,508,0.2539743483,
507,0.013355406,507,0.0008823128883,507,0.2430012971,
506,0.01341598015,506,0.0008120508282,506,0.2320788652,
505,0.01346985996,505,0.0008525882149,505,0.2208205909,
504,0.01346056815,504,0.0007397776353,504,0.2096075416,
503,0.01349164918,503,0.0006714831106,503,0.1986025423,
502,0.01318299491,502,0.0009471382946,502,0.1882398427,
501,0.01334016398,501,0.0007649305626,501,0.1777127385,
500,0.0133305816,500,0.0007908629486,500,0.1674223393,
499,0.01334737148,499,0.0008447553846,499,0.1578905135,
498,0.01319825836,498,0.001149536809,498,0.1489079446,
497,0.01336779259,497,0.0009259178769,497,0.1401516199,
496,0.01341905072,496,0.000743226381,496,0.131923452,
495,0.01331913006,495,0.0008210501983,495,0.1246251464,
494,0.01327252854,494,0.0008635336999,494,0.1176765859,
493,0.01319292095,493,0.0008894719649,493,0.1113852188,
492,0.01325013675,492,0.0008442366379,492,0.105194442,
491,0.0131551642,491,0.0008972797077,491,0.09976661205,
490,0.01333183609,490,0.0006697201752,490,0.09475778788,
489,0.01303783245,489,0.001030577347,489,0.0903031975,
488,0.01309449412,488,0.0008350553107,488,0.08595118672,
487,0.0131582329,487,0.0008464672137,487,0.08204907179,
486,0.01309163962,486,0.0008637412102,486,0.07841795683,
485,0.01318075322,485,0.000906669884,485,0.07476972044,
484,0.01302358881,484,0.0008465709398,484,0.07164359093,
483,0.01306557562,483,0.0008454038179,483,0.06853808463,
482,0.0130106248,482,0.0009511334356,482,0.06553380936,
481,0.01282872539,481,0.000995627488,481,0.06319267303,
480,0.01284024399,480,0.001009223051,480,0.06017426774,
479,0.01295853592,479,0.0007540134829,479,0.05714796856,
478,0.01289247908,478,0.0008549225749,478,0.05448332801,
477,0.01277769729,477,0.0009609399131,477,0.0520487912,
476,0.01298256591,476,0.0005903941346,476,0.04914404452,
475,0.01283800416,475,0.0008082125569,475,0.04671236128,
474,0.01269159745,474,0.0009510037489,474,0.0445128195,
473,0.01264967304,473,0.0009826549795,473,0.04205347225,
472,0.01271465328,472,0.000856245344,472,0.03942589462,
471,0.01282365993,471,0.0007469603443,471,0.03725980967,
470,0.01276607439,470,0.0008494498907,470,0.03482890874,
469,0.01273472514,469,0.0008563490701,469,0.03264502436,
468,0.0127527453,468,0.0009559328901,468,0.0307575278,
467,0.01282936521,467,0.0008400868392,467,0.02873001993,
466,0.01272696815,466,0.000999181997,466,0.02678637393,
465,0.01269748807,465,0.0008762691868,465,0.02495649271,
464,0.01272579562,464,0.0008531329222,464,0.02349709719,
463,0.01286704,463,0.0008806009428,463,0.02166336216,
462,0.01267158147,462,0.0009183171787,462,0.02050348371,
461,0.01262230333,461,0.0009490580414,461,0.01929373108,
460,0.01271262765,460,0.0009315990028,460,0.01797449403,
459,0.01289973222,459,0.0006919392617,459,0.01662549563,
458,0.01288543921,458,0.000798617024,458,0.01558921393,
457,0.01266358513,457,0.0009621592471,457,0.01490888465,
456,0.01273205969,456,0.0009110019309,456,0.01393439248,
455,0.01279036049,455,0.0008486977313,455,0.01314924099,
454,0.01288669277,454,0.0005997517728,454,0.01219676249,
453,0.01256831549,453,0.00109890243,453,0.01179695874,
452,0.01265119296,452,0.0009096011636,452,0.01142292842,
451,0.01255126204,451,0.001058186288,451,0.01090508793,
450,0.01273272559,450,0.0006647164701,450,0.01027101185,
449,0.01278233621,449,0.0006264519761,449,0.009964452125,
448,0.01240319479,448,0.001043836703,448,0.01003011689,
447,0.01248193718,447,0.0009438695852,447,0.00967703294,
446,0.01246637944,446,0.0008679431048,446,0.009616317227,
445,0.01236819662,445,0.0007539616199,445,0.009756527841,
444,0.01221191138,444,0.001017681672,444,0.009838233702,
443,0.01238308474,443,0.0008140737191,443,0.009803283028,
442,0.01248175092,442,0.0007030621637,442,0.00983969029,
441,0.01233607717,441,0.0008519138792,441,0.01022693515,
440,0.01214732602,440,0.001004916034,440,0.01076795533,
439,0.01214160211,439,0.001050842809,439,0.01125335414,
438,0.01214956213,438,0.0008333694423,438,0.01170046907,
437,0.01207428612,437,0.0009538055747,437,0.01257012784,
436,0.01221673004,436,0.0008635596605,436,0.01297688484,
435,0.01211663336,435,0.0009065920603,435,0.013640997,
434,0.01207066607,434,0.000888226903,434,0.01488153264,
433,0.01212507207,433,0.000797864981,433,0.01544544566,
432,0.01204011217,432,0.0009317027871,432,0.01625322364,
431,0.01214410458,431,0.0007682757569,431,0.01692667603,
430,0.01189658232,430,0.0009082782199,430,0.01784363389,
429,0.01203864906,429,0.0007669532206,429,0.01880710572,
428,0.01200769842,428,0.0007880881312,428,0.01971862093,
427,0.01204093732,427,0.0007975797052,427,0.02022747509,
426,0.01182698924,426,0.0008668796509,426,0.02126997709,
425,0.01189424098,425,0.0009566333611,425,0.02191093564,
424,0.01177770179,424,0.0009545060457,424,0.02263737284,
423,0.0116720954,423,0.0009551286348,423,0.02319397777,
422,0.01189030334,422,0.0006724683335,422,0.02327997237,
421,0.01172799338,421,0.0007400369504,421,0.02407666668,
420,0.01144788321,420,0.0007783374167,420,0.02452428639,
419,0.01127075497,419,0.0009179020999,419,0.02492940612,
418,0.01128015947,418,0.0008840248338,418,0.02500985004,
417,0.01114487462,417,0.0009384216974,417,0.02528361976,
416,0.01105737127,416,0.0008864371339,416,0.02575646527,
415,0.01098770089,415,0.0007596405339,415,0.02595853619,
414,0.01087108534,414,0.0006431210204,414,0.02612971701,
413,0.01060601138,413,0.00101638434,413,0.02622941136,
412,0.01045335457,412,0.000991061097,412,0.02652018517,
411,0.01037041843,411,0.0009097568109,411,0.02676115558,
410,0.01010196656,410,0.0009966134094,410,0.02717878483,
409,0.01016219426,409,0.0009647536208,409,0.02721530013,
408,0.01007518079,408,0.0009743008995,408,0.02727907896,
407,0.009867176414,407,0.000934063457,407,0.02796560712,
406,0.009744772688,406,0.0007567881257,406,0.02818133309,
405,0.009569739923,405,0.0008738829056,405,0.02838417701,
404,0.009784140624,404,0.0004984355182,404,0.02827500738,
403,0.009340262972,403,0.0007691574283,403,0.02890879847,
402,0.009247993119,402,0.000802896102,402,0.02879244462,
401,0.008964298293,401,0.0009486689232,401,0.02931024879,
400,0.009013374336,400,0.0007625448634,400,0.02904270403,
399,0.008567062207,399,0.001074197236,399,0.0294471588,
398,0.008493434638,398,0.00105611037,398,0.02943472005,
397,0.008586758748,397,0.0009035830735,397,0.02888475545,
396,0.008414038457,396,0.0006834870437,396,0.02860226668,
395,0.008254025131,395,0.0008174970862,395,0.02855623327,
394,0.007906440645,394,0.001173208002,394,0.02829735726,
393,0.007836008444,393,0.0009832517244,393,0.02782665379,
392,0.007584474515,392,0.001014827518,392,0.02728078701,
391,0.007846709341,391,0.0004948591231,391,0.02624992654,
390,0.007573674433,390,0.0008468562155,390,0.02596785128,
389,0.0073067341,389,0.0008405537228,389,0.0254007671,
388,0.007143549155,388,0.001236882759,388,0.0251992289,
387,0.007016438525,387,0.0009617701289,387,0.02438459359,
386,0.007121865638,386,0.0007526132395,386,0.02358411066,
385,0.006908117328,385,0.0007565288106,385,0.02299684472,
384,0.006865853444,384,0.0009777774103,384,0.02284222655,
383,0.006603868678,383,0.001006109524,383,0.02237360552,
382,0.00638769567,382,0.0009559328901,382,0.02221623994,
381,0.006453689653,381,0.0006581314374,381,0.02169574425,
380,0.006242895965,380,0.0007801267784,380,0.02189299464,
379,0.006429886445,379,0.000726501632,379,0.02168317139,
378,0.006270365324,378,0.0006804018049,378,0.02186078951,
377,0.006066433154,377,0.0008460003301,377,0.02207815833,
376,0.006063230336,376,0.001041605137,376,0.02212999202,
375,0.00611520838,375,0.0006645609392,375,0.0229714904,
374,0.006196994334,374,0.0007871545386,374,0.02320880443,
373,0.005806582514,373,0.001147512347,373,0.02468205243,
372,0.006163280457,372,0.000565951108,372,0.02534958534,
371,0.006002781447,371,0.0008251219988,371,0.02698779665,
370,0.005804588553,370,0.001178269507,370,0.02907832339,
369,0.005744778551,369,0.001270709676,369,0.03118486144,
368,0.006252822466,368,0.0005240927567,368,0.03321072832,
367,0.005993910134,367,0.0008483346319,367,0.03639948368,
366,0.006081474479,366,0.00090475037,366,0.03931876272,
365,0.006040288601,365,0.0008147480548,365,0.04286245257,
364,0.006182237528,364,0.0009555696743,364,0.04638413712,
363,0.005883901846,363,0.00090122252,363,0.05062846839,
362,0.006342645735,362,0.0007012991118,362,0.05430960655,
361,0.006138836965,361,0.001110762474,361,0.05894387886,
360,0.006048216019,360,0.001001984114,360,0.06307960302,
359,0.006498672068,359,0.0005869207089,359,0.06627968699,
358,0.006504899822,358,0.0005266327062,358,0.06965171546,
357,0.006457131356,357,0.0008179380093,357,0.07268547267,
356,0.006527681835,356,0.0006028105272,356,0.07502104342,
355,0.006332427729,355,0.0007757442072,355,0.07725833356,
354,0.006190141197,354,0.0009656356997,354,0.07811678201,
353,0.00619854359,353,0.0008482049452,353,0.07788072526,
352,0.00611583842,352,0.0006740757381,352,0.07690140605,
351,0.006023227703,351,0.001380412257,351,0.07548291981,
350,0.005990603007,350,0.0009205740062,350,0.0728540644,
349,0.008414170705,349,0.001479596831,349,0.06945538521,
348,0.008443863131,348,0.001018927083,348,0.0661810413,
347,0.008759045042,347,0.0008125436143,347,0.06255050749,
346,0.008576302789,346,0.0005879575037,346,0.06029190868,
345,0.008336821571,345,0.001101886854,345,0.05699460581,
344,0.008263971657,344,0.0009390702471,344,0.05489742011,
343,0.007966759615,343,0.001028423663,343,0.05298773944,
342,0.007467979565,342,0.001039944473,342,0.05176024884,
341,0.007782348432,341,0.001041786745,341,0.04992189258,
340,0.008172088303,340,0.0006241188967,340,0.04768273234,
339,0.008750275709,339,0.0009409640334,339,0.04615840316,
338,0.008599194698,338,0.0004338065628,338,0.04534691572,
337,0.008515212685,337,0.0007412037812,337,0.04388948157,
336,0.008828649297,336,0.0003998374741,336,0.04155811295,
335,0.00867624674,335,0.0009987150552,335,0.04035979137,
334,0.008775342256,334,0.0006027586642,334,0.03888440132,
333,0.009317332879,333,0.0001698969572,333,0.0366682522,
332,0.009060868993,332,0.0009248802089,332,0.0360468924,
331,0.009216448292,331,0.001099109999,331,0.03538839519,
330,0.009275812656,330,3.463680696E-5,330,0.03463609517,
329,0.009743237868,329,0.0003528655216,329,0.03466037661,
328,0.009466918185,328,0.001002788544,328,0.03515376151,
327,0.00953862071,327,0.0007641526172,327,0.03653946519,
326,0.00955513306,326,0.0007699872949,326,0.03806312382,
325,0.01007947233,325,0.0009399782284,325,0.04056672752,
324,0.01006508619,324,0.0008342771907,324,0.04366581142,
323,0.010174728,323,0.00113845442,323,0.04704926163,
322,0.01078063995,322,0.0004221204726,322,0.05108708888,
321,0.01055646315,321,0.00116209907,321,0.05596983433,
320,0.01087259874,320,0.0008239549352,320,0.06122240052,
319,0.01062152907,319,0.001351120882,319,0.0675316751,
318,0.01118112821,318,0.0008945041918,318,0.07340344042,
317,0.01117597613,317,0.000912298914,317,0.08060538024,
316,0.01147759799,316,0.0005411207094,316,0.08767727762,
315,0.01133908983,315,0.0009998306632,315,0.09524974972,
314,0.01137902681,314,0.001226966269,314,0.1026123613,
313,0.01130229048,313,0.001303293044,313,0.1098295152,
312,0.0118376296,312,0.0005838620127,312,0.1163508892,
311,0.01167145744,311,0.0007144446718,311,0.1224718168,
310,0.01141997799,310,0.0011133058,310,0.1275841445,
309,0.01178216934,309,0.0009950567037,309,0.1312980354,
308,0.01140060462,308,0.001259987592,308,0.1342933476,
307,0.01147350483,307,0.001601615222,307,0.1368707865,
306,0.01191781368,306,0.001278706011,306,0.1378032863,
305,0.01157558057,305,0.00115646678,305,0.1386457235,
304,0.01190533489,304,0.0005936861271,304,0.1392246783,
303,0.01200756524,303,0.0007990060258,303,0.1394361705,
302,0.01167491358,302,0.001185459434,302,0.1396402717,
301,0.01186175831,301,0.0008216207498,301,0.1396080256,
300,0.01243196242,300,0.0005964856246,300,0.1394999027,
299,0.01195352059,299,0.00139337068,299,0.1404218376,
298,0.01214027125,298,0.001503104228,298,0.1404882222,
297,0.01279110648,297,0.0008405537228,297,0.1401252747,
296,0.01315572485,296,0.0005123524461,296,0.1403271705,
295,0.01318921242,295,0.0008864889969,295,0.1411642432,
294,0.01322440989,294,0.0009394853259,294,0.1425034702,
293,0.01374833845,293,0.0002609053627,293,0.143607989,
292,0.01342428289,292,0.00126468658,292,0.1457373798,
291,0.01363423839,291,0.00122613553,291,0.1474717855,
290,0.01427562814,290,0.0009011446964,290,0.1493296772,
289,0.01424066629,289,0.000553691294,289,0.1517977864,
288,0.01446881332,288,0.0007160522509,288,0.1540825963,
287,0.01455515902,287,0.001114992658,287,0.1565818489,
286,0.01463520341,286,0.001604707097,286,0.1579951942,
285,0.01523506828,285,0.0008385825786,285,0.159631595,
284,0.01502468623,284,0.001045730896,284,0.1607869267,
283,0.01532170083,283,0.0008576459368,283,0.1613451689,
282,0.01552836318,282,0.001145981019,282,0.1611746252,
281,0.01568982005,281,0.001251861802,281,0.1605391949,
280,0.01582515799,280,0.001141023822,280,0.1597542316,
279,0.0161590986,279,0.001019108691,279,0.1588016897,
278,0.01625997014,278,0.001045730896,278,0.1576149911,
277,0.01636333764,277,0.001332866726,277,0.1571013331,
276,0.01644231752,276,0.001150704804,276,0.1564531624,
275,0.01724530198,275,0.0005036186776,275,0.1565161049,
274,0.01719127409,274,0.001059042639,274,0.1580181867,
273,0.01733109728,273,0.001372050494,273,0.1613123715,
272,0.01783948019,272,0.000710477645,272,0.1653740257,
271,0.01799305528,271,0.001167835202,271,0.1725696027,
270,0.0182250198,270,0.001321493997,270,0.1810210496,
269,0.01892405935,269,0.0009938891744,269,0.1916680187,
268,0.01905857213,268,0.001152547542,268,0.2046519071,
267,0.0194969587,267,0.0009591498529,267,0.2187554389,
266,0.0197456833,266,0.001055150293,266,0.2334319204,
265,0.02015414834,265,0.0007857022574,265,0.2476836592,
264,0.02028852701,264,0.001156830112,264,0.2608426809,
263,0.02072109841,263,0.0009772845078,263,0.2715736628,
262,0.02101901919,262,0.001042201999,262,0.2798232138,
261,0.02120506205,261,0.00124796771,261,0.2854353786,
260,0.0220118165,260,0.0005347708357,260,0.2890401185,
259,0.02171098255,259,0.001358962851,259,0.2907260656,
258,0.02184829302,258,0.001036830712,258,0.290933907,
257,0.02193688229,257,0.00121570006,257,0.2901673019,
256,0.02196669579,256,0.001338631148,256,0.2886251211,
255,0.02211506478,255,0.001185122062,255,0.285833627,
254,0.02219033055,254,0.001041760785,254,0.2820486426,
253,0.02226746269,253,0.001012881519,253,0.2767124474,
252,0.02210318856,252,0.0008662830805,252,0.2699765861,
251,0.02202758379,251,0.001026970684,251,0.2621694505,
250,0.02163182758,250,0.0008785258397,250,0.2539912462,
249,0.02149798535,249,0.0007844834472,249,0.2463039905,
248,0.02116782591,248,0.001139414613,248,0.2389935106,
247,0.0205576811,247,0.001104222494,247,0.2330065817,
246,0.0204060711,246,0.001064985059,246,0.2284378707,
245,0.02015116625,245,0.001271955902,245,0.2263128459,
244,0.01996367611,244,0.0008251479594,244,0.2265024185,
243,0.01943704672,243,0.001180371968,243,0.2297268808,
242,0.01947015524,242,0.0008004064439,242,0.2346342355,
241,0.01912508532,241,0.001201734645,241,0.2427676171,
240,0.01907639578,240,0.000585780188,240,0.2513626218,
239,0.01868039928,239,0.001307888655,239,0.2600895166,
238,0.01881113276,238,0.001095528714,238,0.2671529651,
237,0.01841594465,237,0.001209522015,237,0.2733999193,
236,0.01832356304,236,0.001395889674,236,0.2781059742,
235,0.01811988465,235,0.001334398752,235,0.2815983891,
234,0.01808067225,234,0.00136413041,234,0.2863510549,
233,0.01852479763,233,0.0008676837315,233,0.2909349203,
232,0.01875231601,232,0.001064595766,232,0.2968920767,
231,0.01906271093,231,0.0007272795192,231,0.3036530614,
230,0.01912265085,230,0.001094620442,230,0.3131383955,
229,0.0197154507,229,0.001153430087,229,0.3234331012,
228,0.01974245906,228,0.001359845744,228,0.335377723,
227,0.02064481005,227,0.0009375915397,227,0.3480409682,
226,0.02134175226,226,0.0007700131973,226,0.3622317016,
225,0.02151232027,225,0.001346966252,225,0.3772276044,
224,0.02270100079,224,0.0007955568726,224,0.3918983638,
223,0.02389505133,223,0.0009351530462,223,0.4070314467,
222,0.02446162328,222,0.001232391689,222,0.423204124,
221,0.02628075331,221,0.000778856047,221,0.4410835803,
220,0.02742979676,220,0.001118833665,220,0.4600879848,
219,0.0285926722,219,0.001129292767,219,0.4810985923,
218,0.03066340089,218,0.0006444171886,218,0.5018330216,
217,0.03218447044,217,0.0008350553107,217,0.5246581435,
216,0.03428456932,216,0.000450260879,216,0.5488112569,
215,0.03618346527,215,0.0008892904152,215,0.5741702318,
214,0.03803515062,214,0.001010520384,214,0.6014521718,
213,0.04034050182,213,0.0002359888167,213,0.6283752322,
212,0.04261355475,212,0.0003554562281,212,0.6573595405,
211,0.04406753555,211,0.001638406771,211,0.6871770024,
210,0.0461246036,210,0.001160515705,210,0.7167442441,
209,0.04806924984,209,0.001467129332,209,0.7489140034,
208,0.04980937764,208,0.00106285722,208,0.7770167589,
207,0.05213914812,207,0.0001903294469,207,0.806546092,
206,0.05357440934,206,0.0003869086504,206,0.8342350721,
205,0.0546307303,205,0.0004817720037,205,0.8601121902,
204,0.05560129136,204,0.001199943596,204,0.8874043822,
203,0.05556760356,203,0.001533237053,203,0.9128822088,
202,0.05689296126,202,0.0003664669057,202,0.9348882437,
201,0.05639799312,201,0.001398954075,201,0.9576079249,
200,0.05576190352,200,0.001509520225,200,0.9799693823,

Baseline 100%T,
Baseline 100%T
Collection Time: 2018-1-5 下午 02:52:05
Operator Name  :
Scan Software Version: 3.00(182)
Parameter List :
Instrument                        Cary 4000
Instrument Version                1.12
Start (nm)                        800.00
Stop (nm)                         200.00
X Mode                            Nanometers
Y Mode                            Abs
UV-Vis Scan Rate (nm/min)         600.000
UV-Vis Data Interval (nm)         1.000
UV-Vis Ave. Time (sec)            0.100
UV-Vis SBW (nm)                   2.000
Slit Height                       Full
Beam Mode                         Double
Signal-to-noise Mode              Off
UV Source                         On
Vis Source                        On
Third Source                      Off
Source Changeover (nm)            350.00
Baseline Correction               On
Baseline Type                     Baseline correction
Baseline File Name
Baseline Std Ref File Name
Cycle Mode                        Off
Comments
Method Log     :
Method Name    : Default
Date/Time stamp: 2018-1-5 下午 02:51:17
Method Modifications:
Baseline Correction Changed: 2018-1-5 下午 02:51:34, Old:0, New:1
Sipper Type Changed: 2018-1-5 下午 02:51:57, Old:Internal RSA, New:External sipper
End Method Modifications
<SBW (nm)> , 2.000
<Energy> , 724.44
<Slit height> , Full
<Current Wavelength> , 199.00

2-0,
2-0
Collection Time: 2018-1-5 下午 02:54:43
Operator Name  :
Scan Software Version: 3.00(182)
Parameter List :
Instrument                        Cary 4000
Instrument Version                1.12
Start (nm)                        800.00
Stop (nm)                         200.00
X Mode                            Nanometers
Y Mode                            Abs
UV-Vis Scan Rate (nm/min)         600.000
UV-Vis Data Interval (nm)         1.000
UV-Vis Ave. Time (sec)            0.100
UV-Vis SBW (nm)                   2.000
Slit Height                       Full
Beam Mode                         Double
Signal-to-noise Mode              Off
UV Source                         On
Vis Source                        On
Third Source                      Off
Source Changeover (nm)            350.00
Baseline Correction               On
Baseline Type                     Baseline correction
Baseline File Name
Baseline Std Ref File Name
Cycle Mode                        Off
Comments
Method Log     :
Method Name    : Default
Date/Time stamp: 2018-1-5 下午 02:51:17
Method Modifications:
Baseline Correction Changed: 2018-1-5 下午 02:51:34, Old:0, New:1
Sipper Type Changed: 2018-1-5 下午 02:51:57, Old:Internal RSA, New:External sipper
End Method Modifications
<SBW (nm)> , 2.000
<Energy> , 724.44
<Slit height> , Full
<Current Wavelength> , 199.00

2-1,
2-1
Collection Time: 2018-1-5 下午 02:57:24
Operator Name  :
Scan Software Version: 3.00(182)
Parameter List :
Instrument                        Cary 4000
Instrument Version                1.12
Start (nm)                        800.00
Stop (nm)                         200.00
X Mode                            Nanometers
Y Mode                            Abs
UV-Vis Scan Rate (nm/min)         600.000
UV-Vis Data Interval (nm)         1.000
UV-Vis Ave. Time (sec)            0.100
UV-Vis SBW (nm)                   2.000
Slit Height                       Full
Beam Mode                         Double
Signal-to-noise Mode              Off
UV Source                         On
Vis Source                        On
Third Source                      Off
Source Changeover (nm)            350.00
Baseline Correction               On
Baseline Type                     Baseline correction
Baseline File Name
Baseline Std Ref File Name
Cycle Mode                        Off
Comments
Method Log     :
Method Name    : Default
Date/Time stamp: 2018-1-5 下午 02:51:17
Method Modifications:
Baseline Correction Changed: 2018-1-5 下午 02:51:34, Old:0, New:1
Sipper Type Changed: 2018-1-5 下午 02:51:57, Old:Internal RSA, New:External sipper
End Method Modifications
<SBW (nm)> , 2.000
<Energy> , 724.44
<Slit height> , Full
<Current Wavelength> , 200.00

